in Sa,Frequency in Hz,Gain in dB,Phase in °,Amplitude in Vpp
1.00E+00,1.000E+01,-2.024E+01,-9.846E+01,4.000E-02
2.00E+00,1.012E+01,-2.076E+01,-9.778E+01,4.000E-02
3.00E+00,1.023E+01,-2.098E+01,-9.932E+01,4.000E-02
4.00E+00,1.035E+01,-2.168E+01,-1.030E+02,4.000E-02
5.00E+00,1.047E+01,-2.090E+01,-1.015E+02,4.000E-02
6.00E+00,1.059E+01,-2.174E+01,-1.009E+02,4.000E-02
7.00E+00,1.072E+01,-2.136E+01,-1.008E+02,4.000E-02
8.00E+00,1.084E+01,-2.010E+01,-9.683E+01,4.000E-02
9.00E+00,1.096E+01,-2.039E+01,-9.901E+01,4.000E-02
1.00E+01,1.109E+01,-1.965E+01,-9.909E+01,4.000E-02
1.10E+01,1.122E+01,-2.042E+01,-9.584E+01,4.000E-02
1.20E+01,1.135E+01,-2.041E+01,-9.547E+01,4.000E-02
1.30E+01,1.148E+01,-1.955E+01,-1.002E+02,4.000E-02
1.40E+01,1.161E+01,-1.980E+01,-9.934E+01,4.000E-02
1.50E+01,1.175E+01,-1.882E+01,-1.031E+02,4.000E-02
1.60E+01,1.189E+01,-1.941E+01,-9.798E+01,4.000E-02
1.70E+01,1.202E+01,-2.028E+01,-1.023E+02,4.000E-02
1.80E+01,1.216E+01,-1.891E+01,-1.037E+02,4.000E-02
1.90E+01,1.230E+01,-1.927E+01,-1.019E+02,4.000E-02
2.00E+01,1.245E+01,-1.856E+01,-1.014E+02,4.000E-02
2.10E+01,1.259E+01,-1.883E+01,-9.724E+01,4.000E-02
2.20E+01,1.274E+01,-1.900E+01,-1.013E+02,4.000E-02
2.30E+01,1.288E+01,-1.928E+01,-9.935E+01,4.000E-02
2.40E+01,1.303E+01,-1.922E+01,-9.715E+01,4.000E-02
2.50E+01,1.318E+01,-1.813E+01,-9.815E+01,4.000E-02
2.60E+01,1.334E+01,-1.795E+01,-1.001E+02,4.000E-02
2.70E+01,1.349E+01,-1.815E+01,-9.789E+01,4.000E-02
2.80E+01,1.365E+01,-1.817E+01,-1.014E+02,4.000E-02
2.90E+01,1.380E+01,-1.763E+01,-9.857E+01,4.000E-02
3.00E+01,1.396E+01,-1.779E+01,-1.017E+02,4.000E-02
3.10E+01,1.413E+01,-1.762E+01,-1.034E+02,4.000E-02
3.20E+01,1.429E+01,-1.762E+01,-9.749E+01,4.000E-02
3.30E+01,1.445E+01,-1.786E+01,-1.033E+02,4.000E-02
3.40E+01,1.462E+01,-1.778E+01,-1.032E+02,4.000E-02
3.50E+01,1.479E+01,-1.801E+01,-1.006E+02,4.000E-02
3.60E+01,1.496E+01,-1.714E+01,-1.005E+02,4.000E-02
3.70E+01,1.514E+01,-1.737E+01,-1.001E+02,4.000E-02
3.80E+01,1.531E+01,-1.757E+01,-1.028E+02,4.000E-02
3.90E+01,1.549E+01,-1.692E+01,-1.009E+02,4.000E-02
4.00E+01,1.567E+01,-1.723E+01,-1.029E+02,4.000E-02
4.10E+01,1.585E+01,-1.675E+01,-1.016E+02,4.000E-02
4.20E+01,1.603E+01,-1.745E+01,-1.023E+02,4.000E-02
4.30E+01,1.622E+01,-1.671E+01,-1.006E+02,4.000E-02
4.40E+01,1.641E+01,-1.674E+01,-1.000E+02,4.000E-02
4.50E+01,1.660E+01,-1.685E+01,-1.024E+02,4.000E-02
4.60E+01,1.679E+01,-1.620E+01,-1.032E+02,4.000E-02
4.70E+01,1.698E+01,-1.669E+01,-1.022E+02,4.000E-02
4.80E+01,1.718E+01,-1.584E+01,-9.996E+01,4.000E-02
4.90E+01,1.738E+01,-1.597E+01,-1.055E+02,4.000E-02
5.00E+01,1.758E+01,-1.618E+01,-1.066E+02,4.000E-02
5.10E+01,1.778E+01,-1.586E+01,-1.031E+02,4.000E-02
5.20E+01,1.799E+01,-1.625E+01,-1.060E+02,4.000E-02
5.30E+01,1.820E+01,-1.575E+01,-1.018E+02,4.000E-02
5.40E+01,1.841E+01,-1.556E+01,-1.052E+02,4.000E-02
5.50E+01,1.862E+01,-1.607E+01,-1.034E+02,4.000E-02
5.60E+01,1.884E+01,-1.530E+01,-1.027E+02,4.000E-02
5.70E+01,1.905E+01,-1.547E+01,-1.042E+02,4.000E-02
5.80E+01,1.928E+01,-1.519E+01,-1.040E+02,4.000E-02
5.90E+01,1.950E+01,-1.505E+01,-1.037E+02,4.000E-02
6.00E+01,1.972E+01,-1.495E+01,-1.051E+02,4.000E-02
6.10E+01,1.995E+01,-1.502E+01,-1.036E+02,4.000E-02
6.20E+01,2.018E+01,-1.487E+01,-1.030E+02,4.000E-02
6.30E+01,2.042E+01,-1.460E+01,-1.031E+02,4.000E-02
6.40E+01,2.065E+01,-1.469E+01,-1.070E+02,4.000E-02
6.50E+01,2.089E+01,-1.486E+01,-1.051E+02,4.000E-02
6.60E+01,2.113E+01,-1.487E+01,-1.066E+02,4.000E-02
6.70E+01,2.138E+01,-1.467E+01,-1.036E+02,4.000E-02
6.80E+01,2.163E+01,-1.450E+01,-1.056E+02,4.000E-02
6.90E+01,2.188E+01,-1.381E+01,-1.050E+02,4.000E-02
7.00E+01,2.213E+01,-1.404E+01,-1.047E+02,4.000E-02
7.10E+01,2.239E+01,-1.388E+01,-1.034E+02,4.000E-02
7.20E+01,2.265E+01,-1.385E+01,-1.050E+02,4.000E-02
7.30E+01,2.291E+01,-1.380E+01,-1.051E+02,4.000E-02
7.40E+01,2.317E+01,-1.335E+01,-1.048E+02,4.000E-02
7.50E+01,2.344E+01,-1.375E+01,-1.069E+02,4.000E-02
7.60E+01,2.371E+01,-1.350E+01,-1.050E+02,4.000E-02
7.70E+01,2.399E+01,-1.357E+01,-1.075E+02,4.000E-02
7.80E+01,2.427E+01,-1.328E+01,-1.047E+02,4.000E-02
7.90E+01,2.455E+01,-1.319E+01,-1.069E+02,4.000E-02
8.00E+01,2.483E+01,-1.311E+01,-1.053E+02,4.000E-02
8.10E+01,2.512E+01,-1.309E+01,-1.105E+02,4.000E-02
8.20E+01,2.541E+01,-1.298E+01,-1.064E+02,4.000E-02
8.30E+01,2.570E+01,-1.284E+01,-1.063E+02,4.000E-02
8.40E+01,2.600E+01,-1.280E+01,-1.070E+02,4.000E-02
8.50E+01,2.630E+01,-1.285E+01,-1.078E+02,4.000E-02
8.60E+01,2.661E+01,-1.281E+01,-1.073E+02,4.000E-02
8.70E+01,2.692E+01,-1.245E+01,-1.053E+02,4.000E-02
8.80E+01,2.723E+01,-1.248E+01,-1.072E+02,4.000E-02
8.90E+01,2.754E+01,-1.237E+01,-1.061E+02,4.000E-02
9.00E+01,2.786E+01,-1.206E+01,-1.069E+02,4.000E-02
9.10E+01,2.818E+01,-1.222E+01,-1.079E+02,4.000E-02
9.20E+01,2.851E+01,-1.202E+01,-1.075E+02,4.000E-02
9.30E+01,2.884E+01,-1.197E+01,-1.082E+02,4.000E-02
9.40E+01,2.917E+01,-1.184E+01,-1.087E+02,4.000E-02
9.50E+01,2.951E+01,-1.163E+01,-1.075E+02,4.000E-02
9.60E+01,2.985E+01,-1.166E+01,-1.087E+02,4.000E-02
9.70E+01,3.020E+01,-1.157E+01,-1.080E+02,4.000E-02
9.80E+01,3.055E+01,-1.146E+01,-1.089E+02,4.000E-02
9.90E+01,3.090E+01,-1.132E+01,-1.079E+02,4.000E-02
1.00E+02,3.126E+01,-1.109E+01,-1.085E+02,4.000E-02
1.01E+02,3.162E+01,-1.117E+01,-1.098E+02,4.000E-02
1.02E+02,3.199E+01,-1.088E+01,-1.082E+02,4.000E-02
1.03E+02,3.236E+01,-1.092E+01,-1.091E+02,4.000E-02
1.04E+02,3.273E+01,-1.094E+01,-1.106E+02,4.000E-02
1.05E+02,3.311E+01,-1.076E+01,-1.087E+02,4.000E-02
1.06E+02,3.350E+01,-1.056E+01,-1.109E+02,4.000E-02
1.07E+02,3.388E+01,-1.058E+01,-1.110E+02,4.000E-02
1.08E+02,3.428E+01,-1.052E+01,-1.107E+02,4.000E-02
1.09E+02,3.467E+01,-1.028E+01,-1.108E+02,4.000E-02
1.10E+02,3.508E+01,-1.033E+01,-1.095E+02,4.000E-02
1.11E+02,3.548E+01,-1.026E+01,-1.110E+02,4.000E-02
1.12E+02,3.589E+01,-1.012E+01,-1.103E+02,4.000E-02
1.13E+02,3.631E+01,-9.996E+00,-1.107E+02,4.000E-02
1.14E+02,3.673E+01,-9.964E+00,-1.110E+02,4.000E-02
1.15E+02,3.715E+01,-9.777E+00,-1.122E+02,4.000E-02
1.16E+02,3.758E+01,-9.739E+00,-1.120E+02,4.000E-02
1.17E+02,3.802E+01,-9.644E+00,-1.125E+02,4.000E-02
1.18E+02,3.846E+01,-9.756E+00,-1.123E+02,4.000E-02
1.19E+02,3.890E+01,-9.444E+00,-1.127E+02,4.000E-02
1.20E+02,3.936E+01,-9.371E+00,-1.122E+02,4.000E-02
1.21E+02,3.981E+01,-9.279E+00,-1.132E+02,4.000E-02
1.22E+02,4.027E+01,-9.068E+00,-1.127E+02,4.000E-02
1.23E+02,4.074E+01,-9.014E+00,-1.131E+02,4.000E-02
1.24E+02,4.121E+01,-8.986E+00,-1.148E+02,4.000E-02
1.25E+02,4.169E+01,-8.907E+00,-1.145E+02,4.000E-02
1.26E+02,4.217E+01,-8.797E+00,-1.147E+02,4.000E-02
1.27E+02,4.266E+01,-8.827E+00,-1.139E+02,4.000E-02
1.28E+02,4.315E+01,-8.638E+00,-1.153E+02,4.000E-02
1.29E+02,4.365E+01,-8.511E+00,-1.144E+02,4.000E-02
1.30E+02,4.416E+01,-8.293E+00,-1.147E+02,4.000E-02
1.31E+02,4.467E+01,-8.454E+00,-1.155E+02,4.000E-02
1.32E+02,4.519E+01,-8.384E+00,-1.166E+02,4.000E-02
1.33E+02,4.571E+01,-8.185E+00,-1.167E+02,4.000E-02
1.34E+02,4.624E+01,-8.192E+00,-1.165E+02,4.000E-02
1.35E+02,4.677E+01,-8.059E+00,-1.161E+02,4.000E-02
1.36E+02,4.732E+01,-7.951E+00,-1.172E+02,4.000E-02
1.37E+02,4.786E+01,-7.960E+00,-1.175E+02,4.000E-02
1.38E+02,4.842E+01,-7.796E+00,-1.175E+02,4.000E-02
1.39E+02,4.898E+01,-7.813E+00,-1.183E+02,4.000E-02
1.40E+02,4.955E+01,-7.786E+00,-1.178E+02,4.000E-02
1.41E+02,5.012E+01,-7.517E+00,-1.187E+02,4.000E-02
1.42E+02,5.070E+01,-7.504E+00,-1.181E+02,4.000E-02
1.43E+02,5.129E+01,-7.320E+00,-1.193E+02,4.000E-02
1.44E+02,5.188E+01,-7.332E+00,-1.191E+02,4.000E-02
1.45E+02,5.248E+01,-7.229E+00,-1.203E+02,4.000E-02
1.46E+02,5.309E+01,-7.161E+00,-1.204E+02,4.000E-02
1.47E+02,5.370E+01,-7.129E+00,-1.197E+02,4.000E-02
1.48E+02,5.433E+01,-6.943E+00,-1.203E+02,4.000E-02
1.49E+02,5.495E+01,-6.885E+00,-1.204E+02,4.000E-02
1.50E+02,5.559E+01,-6.724E+00,-1.205E+02,4.000E-02
1.51E+02,5.623E+01,-6.902E+00,-1.205E+02,4.000E-02
1.52E+02,5.689E+01,-6.620E+00,-1.227E+02,4.000E-02
1.53E+02,5.754E+01,-6.547E+00,-1.211E+02,4.000E-02
1.54E+02,5.821E+01,-6.617E+00,-1.223E+02,4.000E-02
1.55E+02,5.888E+01,-6.443E+00,-1.216E+02,4.000E-02
1.56E+02,5.957E+01,-6.498E+00,-1.231E+02,4.000E-02
1.57E+02,6.026E+01,-6.339E+00,-1.232E+02,4.000E-02
1.58E+02,6.095E+01,-6.303E+00,-1.236E+02,4.000E-02
1.59E+02,6.166E+01,-6.182E+00,-1.235E+02,4.000E-02
1.60E+02,6.237E+01,-6.180E+00,-1.235E+02,4.000E-02
1.61E+02,6.310E+01,-6.050E+00,-1.244E+02,4.000E-02
1.62E+02,6.383E+01,-5.979E+00,-1.242E+02,4.000E-02
1.63E+02,6.457E+01,-5.896E+00,-1.253E+02,4.000E-02
1.64E+02,6.531E+01,-5.892E+00,-1.247E+02,4.000E-02
1.65E+02,6.607E+01,-5.728E+00,-1.262E+02,4.000E-02
1.66E+02,6.683E+01,-5.671E+00,-1.260E+02,4.000E-02
1.67E+02,6.761E+01,-5.520E+00,-1.265E+02,4.000E-02
1.68E+02,6.839E+01,-5.367E+00,-1.269E+02,4.000E-02
1.69E+02,6.918E+01,-5.375E+00,-1.272E+02,4.000E-02
1.70E+02,6.998E+01,-5.310E+00,-1.270E+02,4.000E-02
1.71E+02,7.079E+01,-5.296E+00,-1.277E+02,4.000E-02
1.72E+02,7.161E+01,-5.167E+00,-1.281E+02,4.000E-02
1.73E+02,7.244E+01,-5.188E+00,-1.284E+02,4.000E-02
1.74E+02,7.328E+01,-5.108E+00,-1.289E+02,4.000E-02
1.75E+02,7.413E+01,-5.064E+00,-1.297E+02,4.000E-02
1.76E+02,7.499E+01,-4.982E+00,-1.295E+02,4.000E-02
1.77E+02,7.586E+01,-4.790E+00,-1.300E+02,4.000E-02
1.78E+02,7.674E+01,-4.780E+00,-1.304E+02,4.000E-02
1.79E+02,7.762E+01,-4.669E+00,-1.303E+02,4.000E-02
1.80E+02,7.852E+01,-4.715E+00,-1.301E+02,4.000E-02
1.81E+02,7.943E+01,-4.718E+00,-1.311E+02,4.000E-02
1.82E+02,8.035E+01,-4.562E+00,-1.323E+02,4.000E-02
1.83E+02,8.128E+01,-4.462E+00,-1.320E+02,4.000E-02
1.84E+02,8.222E+01,-4.451E+00,-1.327E+02,4.000E-02
1.85E+02,8.318E+01,-4.295E+00,-1.333E+02,4.000E-02
1.86E+02,8.414E+01,-4.264E+00,-1.336E+02,4.000E-02
1.87E+02,8.511E+01,-4.255E+00,-1.335E+02,4.000E-02
1.88E+02,8.610E+01,-4.195E+00,-1.343E+02,4.000E-02
1.89E+02,8.710E+01,-4.094E+00,-1.343E+02,4.000E-02
1.90E+02,8.810E+01,-4.005E+00,-1.348E+02,4.000E-02
1.91E+02,8.913E+01,-4.002E+00,-1.361E+02,4.000E-02
1.92E+02,9.016E+01,-3.923E+00,-1.355E+02,4.000E-02
1.93E+02,9.120E+01,-3.936E+00,-1.366E+02,4.000E-02
1.94E+02,9.226E+01,-3.760E+00,-1.361E+02,4.000E-02
1.95E+02,9.333E+01,-3.760E+00,-1.369E+02,4.000E-02
1.96E+02,9.441E+01,-3.733E+00,-1.376E+02,4.000E-02
1.97E+02,9.550E+01,-3.524E+00,-1.380E+02,4.000E-02
1.98E+02,9.661E+01,-3.587E+00,-1.383E+02,4.000E-02
1.99E+02,9.772E+01,-3.542E+00,-1.385E+02,4.000E-02
2.00E+02,9.886E+01,-3.564E+00,-1.388E+02,4.000E-02
2.01E+02,1.000E+02,-3.469E+00,-1.395E+02,4.000E-02
2.02E+02,1.012E+02,-3.336E+00,-1.403E+02,4.000E-02
2.03E+02,1.023E+02,-3.330E+00,-1.403E+02,4.000E-02
2.04E+02,1.035E+02,-3.216E+00,-1.404E+02,4.000E-02
2.05E+02,1.047E+02,-3.183E+00,-1.410E+02,4.000E-02
2.06E+02,1.059E+02,-3.158E+00,-1.413E+02,4.000E-02
2.07E+02,1.072E+02,-3.115E+00,-1.417E+02,4.000E-02
2.08E+02,1.084E+02,-3.019E+00,-1.423E+02,4.000E-02
2.09E+02,1.096E+02,-2.949E+00,-1.427E+02,4.000E-02
2.10E+02,1.109E+02,-2.909E+00,-1.432E+02,4.000E-02
2.11E+02,1.122E+02,-2.900E+00,-1.436E+02,4.000E-02
2.12E+02,1.135E+02,-2.834E+00,-1.438E+02,4.000E-02
2.13E+02,1.148E+02,-2.770E+00,-1.441E+02,4.000E-02
2.14E+02,1.161E+02,-2.788E+00,-1.447E+02,4.000E-02
2.15E+02,1.175E+02,-2.772E+00,-1.447E+02,4.000E-02
2.16E+02,1.189E+02,-2.600E+00,-1.455E+02,4.000E-02
2.17E+02,1.202E+02,-2.571E+00,-1.452E+02,4.000E-02
2.18E+02,1.216E+02,-2.594E+00,-1.463E+02,4.000E-02
2.19E+02,1.230E+02,-2.408E+00,-1.469E+02,4.000E-02
2.20E+02,1.245E+02,-2.572E+00,-1.474E+02,4.000E-02
2.21E+02,1.259E+02,-2.336E+00,-1.473E+02,4.000E-02
2.22E+02,1.274E+02,-2.475E+00,-1.486E+02,4.000E-02
2.23E+02,1.288E+02,-2.262E+00,-1.486E+02,4.000E-02
2.24E+02,1.303E+02,-2.338E+00,-1.490E+02,4.000E-02
2.25E+02,1.318E+02,-2.206E+00,-1.490E+02,4.000E-02
2.26E+02,1.334E+02,-2.162E+00,-1.503E+02,4.000E-02
2.27E+02,1.349E+02,-2.155E+00,-1.494E+02,4.000E-02
2.28E+02,1.365E+02,-2.156E+00,-1.495E+02,4.000E-02
2.29E+02,1.380E+02,-2.138E+00,-1.506E+02,4.000E-02
2.30E+02,1.396E+02,-2.156E+00,-1.514E+02,4.000E-02
2.31E+02,1.413E+02,-1.927E+00,-1.518E+02,4.000E-02
2.32E+02,1.429E+02,-2.096E+00,-1.514E+02,4.000E-02
2.33E+02,1.445E+02,-1.972E+00,-1.534E+02,4.000E-02
2.34E+02,1.462E+02,-1.944E+00,-1.519E+02,4.000E-02
2.35E+02,1.479E+02,-1.897E+00,-1.529E+02,4.000E-02
2.36E+02,1.496E+02,-1.767E+00,-1.543E+02,4.000E-02
2.37E+02,1.514E+02,-1.763E+00,-1.550E+02,4.000E-02
2.38E+02,1.531E+02,-1.795E+00,-1.553E+02,4.000E-02
2.39E+02,1.549E+02,-1.838E+00,-1.545E+02,4.000E-02
2.40E+02,1.567E+02,-1.689E+00,-1.548E+02,4.000E-02
2.41E+02,1.585E+02,-1.698E+00,-1.568E+02,4.000E-02
2.42E+02,1.603E+02,-1.598E+00,-1.561E+02,4.000E-02
2.43E+02,1.622E+02,-1.559E+00,-1.573E+02,4.000E-02
2.44E+02,1.641E+02,-1.665E+00,-1.573E+02,4.000E-02
2.45E+02,1.660E+02,-1.479E+00,-1.577E+02,4.000E-02
2.46E+02,1.679E+02,-1.555E+00,-1.580E+02,4.000E-02
2.47E+02,1.698E+02,-1.493E+00,-1.592E+02,4.000E-02
2.48E+02,1.718E+02,-1.404E+00,-1.599E+02,4.000E-02
2.49E+02,1.738E+02,-1.356E+00,-1.593E+02,4.000E-02
2.50E+02,1.758E+02,-1.412E+00,-1.605E+02,4.000E-02
2.51E+02,1.778E+02,-1.258E+00,-1.606E+02,4.000E-02
2.52E+02,1.799E+02,-1.365E+00,-1.609E+02,4.000E-02
2.53E+02,1.820E+02,-1.286E+00,-1.612E+02,4.000E-02
2.54E+02,1.841E+02,-1.275E+00,-1.618E+02,4.000E-02
2.55E+02,1.862E+02,-1.303E+00,-1.621E+02,4.000E-02
2.56E+02,1.884E+02,-1.199E+00,-1.627E+02,4.000E-02
2.57E+02,1.905E+02,-1.240E+00,-1.633E+02,4.000E-02
2.58E+02,1.928E+02,-1.217E+00,-1.629E+02,4.000E-02
2.59E+02,1.950E+02,-1.262E+00,-1.636E+02,4.000E-02
2.60E+02,1.972E+02,-1.185E+00,-1.643E+02,4.000E-02
2.61E+02,1.995E+02,-1.156E+00,-1.646E+02,4.000E-02
2.62E+02,2.018E+02,-1.136E+00,-1.643E+02,4.000E-02
2.63E+02,2.042E+02,-1.049E+00,-1.661E+02,4.000E-02
2.64E+02,2.065E+02,-1.029E+00,-1.655E+02,4.000E-02
2.65E+02,2.089E+02,-1.108E+00,-1.667E+02,4.000E-02
2.66E+02,2.113E+02,-1.006E+00,-1.671E+02,4.000E-02
2.67E+02,2.138E+02,-9.521E-01,-1.669E+02,4.000E-02
2.68E+02,2.163E+02,-1.115E+00,-1.682E+02,4.000E-02
2.69E+02,2.188E+02,-9.177E-01,-1.679E+02,4.000E-02
2.70E+02,2.213E+02,-1.001E+00,-1.691E+02,4.000E-02
2.71E+02,2.239E+02,-8.901E-01,-1.692E+02,4.000E-02
2.72E+02,2.265E+02,-8.934E-01,-1.686E+02,4.000E-02
2.73E+02,2.291E+02,-8.721E-01,-1.701E+02,4.000E-02
2.74E+02,2.317E+02,-8.346E-01,-1.709E+02,4.000E-02
2.75E+02,2.344E+02,-8.613E-01,-1.703E+02,4.000E-02
2.76E+02,2.371E+02,-7.552E-01,-1.709E+02,4.000E-02
2.77E+02,2.399E+02,-7.625E-01,-1.719E+02,4.000E-02
2.78E+02,2.427E+02,-7.356E-01,-1.716E+02,4.000E-02
2.79E+02,2.455E+02,-7.948E-01,-1.730E+02,4.000E-02
2.80E+02,2.483E+02,-7.377E-01,-1.734E+02,4.000E-02
2.81E+02,2.512E+02,-8.580E-01,-1.737E+02,4.000E-02
2.82E+02,2.541E+02,-6.956E-01,-1.742E+02,4.000E-02
2.83E+02,2.570E+02,-7.044E-01,-1.746E+02,4.000E-02
2.84E+02,2.600E+02,-7.716E-01,-1.747E+02,4.000E-02
2.85E+02,2.630E+02,-5.588E-01,-1.751E+02,4.000E-02
2.86E+02,2.661E+02,-7.421E-01,-1.756E+02,4.000E-02
2.87E+02,2.692E+02,-6.455E-01,-1.759E+02,4.000E-02
2.88E+02,2.723E+02,-5.038E-01,-1.771E+02,4.000E-02
2.89E+02,2.754E+02,-5.545E-01,-1.767E+02,4.000E-02
2.90E+02,2.786E+02,-4.110E-01,-1.772E+02,4.000E-02
2.91E+02,2.818E+02,-5.544E-01,-1.789E+02,4.000E-02
2.92E+02,2.851E+02,-6.252E-01,-1.778E+02,4.000E-02
2.93E+02,2.884E+02,-5.742E-01,-1.792E+02,4.000E-02
2.94E+02,2.917E+02,-5.291E-01,-1.792E+02,4.000E-02
2.95E+02,2.951E+02,-5.951E-01,-1.789E+02,4.000E-02
2.96E+02,2.985E+02,-3.643E-01,-1.795E+02,4.000E-02
2.97E+02,3.020E+02,-4.278E-01,1.793E+02,4.000E-02
2.98E+02,3.055E+02,-3.767E-01,1.797E+02,4.000E-02
2.99E+02,3.090E+02,-4.858E-01,1.785E+02,4.000E-02
3.00E+02,3.126E+02,-5.234E-01,1.783E+02,4.000E-02
3.01E+02,3.162E+02,-4.320E-01,1.781E+02,4.000E-02
3.02E+02,3.199E+02,-3.970E-01,1.772E+02,4.000E-02
3.03E+02,3.236E+02,-4.101E-01,1.763E+02,4.000E-02
3.04E+02,3.273E+02,-4.178E-01,1.772E+02,4.000E-02
3.05E+02,3.311E+02,-5.311E-01,1.767E+02,4.000E-02
3.06E+02,3.350E+02,-2.312E-01,1.756E+02,4.000E-02
3.07E+02,3.388E+02,-1.975E-01,1.755E+02,4.000E-02
3.08E+02,3.428E+02,-4.408E-01,1.741E+02,4.000E-02
3.09E+02,3.467E+02,-2.306E-01,1.747E+02,4.000E-02
3.10E+02,3.508E+02,-1.537E-01,1.734E+02,4.000E-02
3.11E+02,3.548E+02,-3.983E-01,1.724E+02,4.000E-02
3.12E+02,3.589E+02,-5.221E-01,1.727E+02,4.000E-02
3.13E+02,3.631E+02,-2.969E-01,1.714E+02,4.000E-02
3.14E+02,3.673E+02,-4.079E-01,1.722E+02,4.000E-02
3.15E+02,3.715E+02,-3.387E-01,1.722E+02,4.000E-02
3.16E+02,3.758E+02,-2.093E-01,1.705E+02,4.000E-02
3.17E+02,3.802E+02,-2.057E-01,1.700E+02,4.000E-02
3.18E+02,3.846E+02,-2.621E-01,1.697E+02,4.000E-02
3.19E+02,3.890E+02,-3.332E-01,1.699E+02,4.000E-02
3.20E+02,3.936E+02,-3.868E-01,1.689E+02,4.000E-02
3.21E+02,3.981E+02,-2.289E-01,1.690E+02,4.000E-02
3.22E+02,4.027E+02,-3.870E-01,1.682E+02,4.000E-02
3.23E+02,4.074E+02,-2.578E-01,1.682E+02,4.000E-02
3.24E+02,4.121E+02,-1.535E-01,1.673E+02,4.000E-02
3.25E+02,4.169E+02,-2.145E-01,1.672E+02,4.000E-02
3.26E+02,4.217E+02,-1.730E-01,1.657E+02,4.000E-02
3.27E+02,4.266E+02,-3.719E-01,1.655E+02,4.000E-02
3.28E+02,4.315E+02,-3.385E-01,1.647E+02,4.000E-02
3.29E+02,4.365E+02,-2.109E-01,1.650E+02,4.000E-02
3.30E+02,4.416E+02,-2.639E-01,1.638E+02,4.000E-02
3.31E+02,4.467E+02,-1.993E-01,1.633E+02,4.000E-02
3.32E+02,4.519E+02,-2.511E-01,1.633E+02,4.000E-02
3.33E+02,4.571E+02,-2.478E-01,1.626E+02,4.000E-02
3.34E+02,4.624E+02,-2.351E-01,1.623E+02,4.000E-02
3.35E+02,4.677E+02,-1.161E-01,1.629E+02,4.000E-02
3.36E+02,4.732E+02,-5.871E-02,1.607E+02,4.000E-02
3.37E+02,4.786E+02,-3.285E-01,1.605E+02,4.000E-02
3.38E+02,4.842E+02,-1.031E-01,1.599E+02,4.000E-02
3.39E+02,4.898E+02,-2.022E-01,1.584E+02,4.000E-02
3.40E+02,4.955E+02,-2.430E-01,1.590E+02,4.000E-02
3.41E+02,5.012E+02,-9.466E-03,1.587E+02,4.000E-02
3.42E+02,5.070E+02,-9.099E-02,1.575E+02,4.000E-02
3.43E+02,5.129E+02,-1.299E-01,1.572E+02,4.000E-02
3.44E+02,5.188E+02,-1.348E-01,1.568E+02,4.000E-02
3.45E+02,5.248E+02,-1.833E-01,1.560E+02,4.000E-02
3.46E+02,5.309E+02,3.024E-02,1.556E+02,4.000E-02
3.47E+02,5.370E+02,-1.549E-01,1.560E+02,4.000E-02
3.48E+02,5.433E+02,7.653E-03,1.541E+02,4.000E-02
3.49E+02,5.495E+02,-1.242E-01,1.548E+02,4.000E-02
3.50E+02,5.559E+02,-4.895E-03,1.535E+02,4.000E-02
3.51E+02,5.623E+02,-7.609E-02,1.539E+02,4.000E-02
3.52E+02,5.689E+02,-1.698E-01,1.529E+02,4.000E-02
3.53E+02,5.754E+02,-9.575E-02,1.513E+02,4.000E-02
3.54E+02,5.821E+02,1.570E-02,1.519E+02,4.000E-02
3.55E+02,5.888E+02,-1.541E-01,1.509E+02,4.000E-02
3.56E+02,5.957E+02,6.863E-02,1.503E+02,4.000E-02
3.57E+02,6.026E+02,-9.138E-02,1.500E+02,4.000E-02
3.58E+02,6.095E+02,-4.968E-02,1.477E+02,4.000E-02
3.59E+02,6.166E+02,-1.133E-01,1.483E+02,4.000E-02
3.60E+02,6.237E+02,7.374E-02,1.477E+02,4.000E-02
3.61E+02,6.310E+02,-1.396E-01,1.467E+02,4.000E-02
3.62E+02,6.383E+02,1.529E-02,1.465E+02,4.000E-02
3.63E+02,6.457E+02,-5.248E-02,1.454E+02,4.000E-02
3.64E+02,6.531E+02,-9.565E-03,1.459E+02,4.000E-02
3.65E+02,6.607E+02,-4.026E-02,1.443E+02,4.000E-02
3.66E+02,6.683E+02,1.370E-02,1.446E+02,4.000E-02
3.67E+02,6.761E+02,-3.025E-02,1.432E+02,4.000E-02
3.68E+02,6.839E+02,1.213E-01,1.432E+02,4.000E-02
3.69E+02,6.918E+02,1.811E-02,1.417E+02,4.000E-02
3.70E+02,6.998E+02,6.457E-02,1.412E+02,4.000E-02
3.71E+02,7.079E+02,-1.934E-02,1.406E+02,4.000E-02
3.72E+02,7.161E+02,2.826E-02,1.405E+02,4.000E-02
3.73E+02,7.244E+02,1.205E-01,1.390E+02,4.000E-02
3.74E+02,7.328E+02,-8.925E-02,1.383E+02,4.000E-02
3.75E+02,7.413E+02,-1.994E-02,1.378E+02,4.000E-02
3.76E+02,7.499E+02,6.129E-02,1.369E+02,4.000E-02
3.77E+02,7.586E+02,-1.335E-02,1.358E+02,4.000E-02
3.78E+02,7.674E+02,-1.256E-03,1.366E+02,4.000E-02
3.79E+02,7.762E+02,1.314E-01,1.346E+02,4.000E-02
3.80E+02,7.852E+02,-1.399E-02,1.344E+02,4.000E-02
3.81E+02,7.943E+02,3.347E-02,1.341E+02,4.000E-02
3.82E+02,8.035E+02,3.213E-02,1.331E+02,4.000E-02
3.83E+02,8.128E+02,4.118E-02,1.324E+02,4.000E-02
3.84E+02,8.222E+02,8.158E-02,1.309E+02,4.000E-02
3.85E+02,8.318E+02,4.173E-02,1.313E+02,4.000E-02
