in Sa,Frequency in Hz,Gain in dB,Phase in °,Amplitude in Vpp
1.00E+00,1.000E+01,1.381E+01,9.279E+01,3.000E-02
2.00E+00,1.012E+01,1.372E+01,9.190E+01,3.000E-02
3.00E+00,1.023E+01,1.396E+01,9.261E+01,3.000E-02
4.00E+00,1.035E+01,1.433E+01,9.276E+01,3.000E-02
5.00E+00,1.047E+01,1.448E+01,9.317E+01,3.000E-02
6.00E+00,1.059E+01,1.465E+01,9.352E+01,3.000E-02
7.00E+00,1.072E+01,1.482E+01,9.457E+01,3.000E-02
8.00E+00,1.084E+01,1.481E+01,9.447E+01,3.000E-02
9.00E+00,1.096E+01,1.494E+01,9.385E+01,3.000E-02
1.00E+01,1.109E+01,1.529E+01,9.594E+01,3.000E-02
1.10E+01,1.122E+01,1.537E+01,9.514E+01,3.000E-02
1.20E+01,1.135E+01,1.574E+01,9.507E+01,3.000E-02
1.30E+01,1.148E+01,1.606E+01,9.575E+01,3.000E-02
1.40E+01,1.161E+01,1.608E+01,9.434E+01,3.000E-02
1.50E+01,1.175E+01,1.618E+01,9.470E+01,3.000E-02
1.60E+01,1.189E+01,1.621E+01,9.459E+01,3.000E-02
1.70E+01,1.202E+01,1.651E+01,9.472E+01,3.000E-02
1.80E+01,1.216E+01,1.678E+01,9.482E+01,3.000E-02
1.90E+01,1.230E+01,1.671E+01,9.589E+01,3.000E-02
2.00E+01,1.245E+01,1.706E+01,9.520E+01,3.000E-02
2.10E+01,1.259E+01,1.718E+01,9.549E+01,3.000E-02
2.20E+01,1.274E+01,1.721E+01,9.521E+01,3.000E-02
2.30E+01,1.288E+01,1.765E+01,9.575E+01,3.000E-02
2.40E+01,1.303E+01,1.759E+01,9.501E+01,3.000E-02
2.50E+01,1.318E+01,1.793E+01,9.604E+01,3.000E-02
2.60E+01,1.334E+01,1.795E+01,9.605E+01,3.000E-02
2.70E+01,1.349E+01,1.830E+01,9.635E+01,3.000E-02
2.80E+01,1.365E+01,1.826E+01,9.739E+01,3.000E-02
2.90E+01,1.380E+01,1.853E+01,9.582E+01,3.000E-02
3.00E+01,1.396E+01,1.864E+01,9.666E+01,3.000E-02
3.10E+01,1.413E+01,1.875E+01,9.595E+01,3.000E-02
3.20E+01,1.429E+01,1.908E+01,9.538E+01,3.000E-02
3.30E+01,1.445E+01,1.912E+01,9.637E+01,3.000E-02
3.40E+01,1.462E+01,1.928E+01,9.636E+01,3.000E-02
3.50E+01,1.479E+01,1.952E+01,9.600E+01,3.000E-02
3.60E+01,1.496E+01,1.979E+01,9.640E+01,3.000E-02
3.70E+01,1.514E+01,1.989E+01,9.603E+01,3.000E-02
3.80E+01,1.531E+01,1.982E+01,9.609E+01,3.000E-02
3.90E+01,1.549E+01,2.002E+01,9.600E+01,3.000E-02
4.00E+01,1.567E+01,2.019E+01,9.572E+01,3.000E-02
4.10E+01,1.585E+01,2.035E+01,9.652E+01,3.000E-02
4.20E+01,1.603E+01,2.055E+01,9.641E+01,3.000E-02
4.30E+01,1.622E+01,2.072E+01,9.657E+01,3.000E-02
4.40E+01,1.641E+01,2.090E+01,9.615E+01,3.000E-02
4.50E+01,1.660E+01,2.103E+01,9.572E+01,3.000E-02
4.60E+01,1.679E+01,2.120E+01,9.656E+01,3.000E-02
4.70E+01,1.698E+01,2.129E+01,9.631E+01,3.000E-02
4.80E+01,1.718E+01,2.127E+01,9.505E+01,3.000E-02
4.90E+01,1.738E+01,2.152E+01,9.634E+01,3.000E-02
5.00E+01,1.758E+01,2.168E+01,9.545E+01,3.000E-02
5.10E+01,1.778E+01,2.184E+01,9.531E+01,3.000E-02
5.20E+01,1.799E+01,2.212E+01,9.547E+01,3.000E-02
5.30E+01,1.820E+01,2.212E+01,9.540E+01,3.000E-02
5.40E+01,1.841E+01,2.179E+01,9.664E+01,3.000E-02
5.50E+01,1.862E+01,2.170E+01,9.521E+01,3.000E-02
5.60E+01,1.884E+01,2.177E+01,9.656E+01,3.000E-02
5.70E+01,1.905E+01,2.215E+01,9.514E+01,3.000E-02
5.80E+01,1.928E+01,2.221E+01,9.476E+01,3.000E-02
5.90E+01,1.950E+01,2.225E+01,9.522E+01,3.000E-02
6.00E+01,1.972E+01,2.264E+01,9.520E+01,3.000E-02
6.10E+01,1.995E+01,2.272E+01,9.456E+01,3.000E-02
6.20E+01,2.018E+01,2.267E+01,9.508E+01,3.000E-02
6.30E+01,2.042E+01,2.301E+01,9.452E+01,3.000E-02
6.40E+01,2.065E+01,2.308E+01,9.489E+01,3.000E-02
6.50E+01,2.089E+01,2.301E+01,9.450E+01,3.000E-02
6.60E+01,2.113E+01,2.332E+01,9.455E+01,3.000E-02
6.70E+01,2.138E+01,2.352E+01,9.406E+01,3.000E-02
6.80E+01,2.163E+01,2.381E+01,9.389E+01,3.000E-02
6.90E+01,2.188E+01,2.372E+01,9.357E+01,3.000E-02
7.00E+01,2.213E+01,2.401E+01,9.423E+01,3.000E-02
7.10E+01,2.239E+01,2.403E+01,9.444E+01,3.000E-02
7.20E+01,2.265E+01,2.432E+01,9.365E+01,3.000E-02
7.30E+01,2.291E+01,2.426E+01,9.329E+01,3.000E-02
7.40E+01,2.317E+01,2.451E+01,9.254E+01,3.000E-02
7.50E+01,2.344E+01,2.495E+01,9.295E+01,3.000E-02
7.60E+01,2.371E+01,2.483E+01,9.384E+01,3.000E-02
7.70E+01,2.399E+01,2.499E+01,9.259E+01,3.000E-02
7.80E+01,2.427E+01,2.495E+01,9.309E+01,3.000E-02
7.90E+01,2.455E+01,2.462E+01,9.268E+01,3.000E-02
8.00E+01,2.483E+01,2.487E+01,9.300E+01,3.000E-02
8.10E+01,2.512E+01,2.477E+01,9.291E+01,3.000E-02
8.20E+01,2.541E+01,2.501E+01,9.235E+01,3.000E-02
8.30E+01,2.570E+01,2.535E+01,9.202E+01,3.000E-02
8.40E+01,2.600E+01,2.554E+01,9.178E+01,3.000E-02
8.50E+01,2.630E+01,2.542E+01,9.151E+01,3.000E-02
8.60E+01,2.661E+01,2.565E+01,9.237E+01,3.000E-02
8.70E+01,2.692E+01,2.582E+01,9.122E+01,3.000E-02
8.80E+01,2.723E+01,2.606E+01,9.144E+01,3.000E-02
8.90E+01,2.754E+01,2.590E+01,9.156E+01,3.000E-02
9.00E+01,2.786E+01,2.616E+01,9.073E+01,3.000E-02
9.10E+01,2.818E+01,2.621E+01,9.000E+01,3.000E-02
9.20E+01,2.851E+01,2.652E+01,9.044E+01,3.000E-02
9.30E+01,2.884E+01,2.666E+01,9.033E+01,3.000E-02
9.40E+01,2.917E+01,2.687E+01,8.910E+01,3.000E-02
9.50E+01,2.951E+01,2.677E+01,8.993E+01,3.000E-02
9.60E+01,2.985E+01,2.697E+01,8.964E+01,3.000E-02
9.70E+01,3.020E+01,2.859E+01,7.268E+01,3.000E-02
9.80E+01,3.055E+01,2.861E+01,7.243E+01,3.000E-02
9.90E+01,3.090E+01,2.879E+01,7.196E+01,3.000E-02
1.00E+02,3.126E+01,2.890E+01,7.185E+01,3.000E-02
1.01E+02,3.162E+01,2.894E+01,7.145E+01,3.000E-02
1.02E+02,3.199E+01,2.900E+01,7.116E+01,3.000E-02
1.03E+02,3.236E+01,2.917E+01,7.097E+01,3.000E-02
1.04E+02,3.273E+01,2.919E+01,7.087E+01,3.000E-02
1.05E+02,3.311E+01,2.928E+01,7.090E+01,3.000E-02
1.06E+02,3.350E+01,2.942E+01,7.032E+01,3.000E-02
1.07E+02,3.388E+01,2.950E+01,7.060E+01,3.000E-02
1.08E+02,3.428E+01,2.960E+01,7.005E+01,3.000E-02
1.09E+02,3.467E+01,2.973E+01,7.031E+01,3.000E-02
1.10E+02,3.508E+01,2.976E+01,6.982E+01,3.000E-02
1.11E+02,3.548E+01,2.989E+01,6.947E+01,3.000E-02
1.12E+02,3.589E+01,2.995E+01,6.904E+01,3.000E-02
1.13E+02,3.631E+01,2.998E+01,6.928E+01,3.000E-02
1.14E+02,3.673E+01,3.005E+01,6.880E+01,3.000E-02
1.15E+02,3.715E+01,3.027E+01,6.859E+01,3.000E-02
1.16E+02,3.758E+01,3.023E+01,6.833E+01,3.000E-02
1.17E+02,3.802E+01,3.039E+01,6.812E+01,3.000E-02
1.18E+02,3.846E+01,3.046E+01,6.809E+01,3.000E-02
1.19E+02,3.890E+01,3.058E+01,6.718E+01,3.000E-02
1.20E+02,3.936E+01,3.066E+01,6.732E+01,3.000E-02
1.21E+02,3.981E+01,3.076E+01,6.769E+01,3.000E-02
1.22E+02,4.027E+01,3.086E+01,6.646E+01,3.000E-02
1.23E+02,4.074E+01,3.096E+01,6.667E+01,3.000E-02
1.24E+02,4.121E+01,3.094E+01,6.662E+01,3.000E-02
1.25E+02,4.169E+01,3.114E+01,6.628E+01,3.000E-02
1.26E+02,4.217E+01,3.123E+01,6.628E+01,3.000E-02
1.27E+02,4.266E+01,3.135E+01,6.555E+01,3.000E-02
1.28E+02,4.315E+01,3.142E+01,6.516E+01,3.000E-02
1.29E+02,4.365E+01,3.139E+01,6.565E+01,3.000E-02
1.30E+02,4.416E+01,3.142E+01,6.494E+01,3.000E-02
1.31E+02,4.467E+01,3.166E+01,6.448E+01,3.000E-02
1.32E+02,4.519E+01,3.170E+01,6.407E+01,3.000E-02
1.33E+02,4.571E+01,3.176E+01,6.368E+01,3.000E-02
1.34E+02,4.624E+01,3.187E+01,6.363E+01,3.000E-02
1.35E+02,4.677E+01,3.197E+01,6.312E+01,3.000E-02
1.36E+02,4.732E+01,3.199E+01,6.315E+01,3.000E-02
1.37E+02,4.786E+01,3.215E+01,6.297E+01,3.000E-02
1.38E+02,4.842E+01,3.216E+01,6.253E+01,3.000E-02
1.39E+02,4.898E+01,3.225E+01,6.274E+01,3.000E-02
1.40E+02,4.955E+01,3.240E+01,6.211E+01,3.000E-02
1.41E+02,5.012E+01,3.244E+01,6.200E+01,3.000E-02
1.42E+02,5.070E+01,3.246E+01,6.164E+01,3.000E-02
1.43E+02,5.129E+01,3.271E+01,6.162E+01,3.000E-02
1.44E+02,5.188E+01,3.268E+01,6.129E+01,3.000E-02
1.45E+02,5.248E+01,3.279E+01,6.119E+01,3.000E-02
1.46E+02,5.309E+01,3.287E+01,6.018E+01,3.000E-02
1.47E+02,5.370E+01,3.295E+01,5.969E+01,3.000E-02
1.48E+02,5.433E+01,3.297E+01,5.966E+01,3.000E-02
1.49E+02,5.495E+01,3.307E+01,5.963E+01,3.000E-02
1.50E+02,5.559E+01,3.322E+01,5.915E+01,3.000E-02
1.51E+02,5.623E+01,3.325E+01,5.872E+01,3.000E-02
1.52E+02,5.689E+01,3.329E+01,5.817E+01,3.000E-02
1.53E+02,5.754E+01,3.335E+01,5.819E+01,3.000E-02
1.54E+02,5.821E+01,3.351E+01,5.793E+01,3.000E-02
1.55E+02,5.888E+01,3.355E+01,5.782E+01,3.000E-02
1.56E+02,5.957E+01,3.361E+01,5.717E+01,3.000E-02
1.57E+02,6.026E+01,3.375E+01,5.702E+01,3.000E-02
1.58E+02,6.095E+01,3.385E+01,5.638E+01,3.000E-02
1.59E+02,6.166E+01,3.390E+01,5.643E+01,3.000E-02
1.60E+02,6.237E+01,3.398E+01,5.572E+01,3.000E-02
1.61E+02,6.310E+01,3.398E+01,5.558E+01,3.000E-02
1.62E+02,6.383E+01,3.409E+01,5.525E+01,3.000E-02
1.63E+02,6.457E+01,3.421E+01,5.473E+01,3.000E-02
1.64E+02,6.531E+01,3.434E+01,5.456E+01,3.000E-02
1.65E+02,6.607E+01,3.433E+01,5.427E+01,3.000E-02
1.66E+02,6.683E+01,3.443E+01,5.417E+01,3.000E-02
1.67E+02,6.761E+01,3.449E+01,5.342E+01,3.000E-02
1.68E+02,6.839E+01,3.459E+01,5.358E+01,3.000E-02
1.69E+02,6.918E+01,3.461E+01,5.251E+01,3.000E-02
1.70E+02,6.998E+01,3.474E+01,5.275E+01,3.000E-02
1.71E+02,7.079E+01,3.479E+01,5.195E+01,3.000E-02
1.72E+02,7.161E+01,3.477E+01,5.201E+01,3.000E-02
1.73E+02,7.244E+01,3.488E+01,5.141E+01,3.000E-02
1.74E+02,7.328E+01,3.497E+01,5.091E+01,3.000E-02
1.75E+02,7.413E+01,3.505E+01,5.032E+01,3.000E-02
1.76E+02,7.499E+01,3.512E+01,5.026E+01,3.000E-02
1.77E+02,7.586E+01,3.517E+01,5.000E+01,3.000E-02
1.78E+02,7.674E+01,3.524E+01,4.935E+01,3.000E-02
1.79E+02,7.762E+01,3.533E+01,4.902E+01,3.000E-02
1.80E+02,7.852E+01,3.532E+01,4.906E+01,3.000E-02
1.81E+02,7.943E+01,3.544E+01,4.830E+01,3.000E-02
1.82E+02,8.035E+01,3.552E+01,4.788E+01,3.000E-02
1.83E+02,8.128E+01,3.553E+01,4.748E+01,3.000E-02
1.84E+02,8.222E+01,3.558E+01,4.722E+01,3.000E-02
1.85E+02,8.318E+01,3.569E+01,4.713E+01,3.000E-02
1.86E+02,8.414E+01,3.574E+01,4.653E+01,3.000E-02
1.87E+02,8.511E+01,3.583E+01,4.625E+01,3.000E-02
1.88E+02,8.610E+01,3.586E+01,4.600E+01,3.000E-02
1.89E+02,8.710E+01,3.598E+01,4.545E+01,3.000E-02
1.90E+02,8.810E+01,3.601E+01,4.513E+01,3.000E-02
1.91E+02,8.913E+01,3.610E+01,4.455E+01,3.000E-02
1.92E+02,9.016E+01,3.619E+01,4.422E+01,3.000E-02
1.93E+02,9.120E+01,3.615E+01,4.385E+01,3.000E-02
1.94E+02,9.226E+01,3.628E+01,4.363E+01,3.000E-02
1.95E+02,9.333E+01,3.628E+01,4.326E+01,3.000E-02
1.96E+02,9.441E+01,3.635E+01,4.248E+01,3.000E-02
1.97E+02,9.550E+01,3.639E+01,4.199E+01,3.000E-02
1.98E+02,9.661E+01,3.650E+01,4.171E+01,3.000E-02
1.99E+02,9.772E+01,3.652E+01,4.118E+01,3.000E-02
2.00E+02,9.886E+01,3.660E+01,4.077E+01,3.000E-02
2.01E+02,1.000E+02,3.658E+01,4.068E+01,3.000E-02
2.02E+02,1.012E+02,3.667E+01,4.002E+01,3.000E-02
2.03E+02,1.023E+02,3.674E+01,3.999E+01,3.000E-02
2.04E+02,1.035E+02,3.678E+01,3.941E+01,3.000E-02
2.05E+02,1.047E+02,3.685E+01,3.896E+01,3.000E-02
2.06E+02,1.059E+02,3.690E+01,3.871E+01,3.000E-02
2.07E+02,1.072E+02,3.697E+01,3.806E+01,3.000E-02
2.08E+02,1.084E+02,3.700E+01,3.794E+01,3.000E-02
2.09E+02,1.096E+02,3.706E+01,3.730E+01,3.000E-02
2.10E+02,1.109E+02,3.710E+01,3.735E+01,3.000E-02
2.11E+02,1.122E+02,3.714E+01,3.638E+01,3.000E-02
2.12E+02,1.135E+02,3.718E+01,3.598E+01,3.000E-02
2.13E+02,1.148E+02,3.725E+01,3.580E+01,3.000E-02
2.14E+02,1.161E+02,3.728E+01,3.519E+01,3.000E-02
2.15E+02,1.175E+02,3.730E+01,3.492E+01,3.000E-02
2.16E+02,1.189E+02,3.737E+01,3.438E+01,3.000E-02
2.17E+02,1.202E+02,3.746E+01,3.418E+01,3.000E-02
2.18E+02,1.216E+02,3.750E+01,3.393E+01,3.000E-02
2.19E+02,1.230E+02,3.753E+01,3.341E+01,3.000E-02
2.20E+02,1.245E+02,3.757E+01,3.291E+01,3.000E-02
2.21E+02,1.259E+02,3.761E+01,3.255E+01,3.000E-02
2.22E+02,1.274E+02,3.762E+01,3.215E+01,3.000E-02
2.23E+02,1.288E+02,3.771E+01,3.196E+01,3.000E-02
2.24E+02,1.303E+02,3.769E+01,3.133E+01,3.000E-02
2.25E+02,1.318E+02,3.777E+01,3.029E+01,3.000E-02
2.26E+02,1.334E+02,3.786E+01,2.983E+01,3.000E-02
2.27E+02,1.349E+02,3.787E+01,2.947E+01,3.000E-02
2.28E+02,1.365E+02,3.784E+01,2.903E+01,3.000E-02
2.29E+02,1.380E+02,3.796E+01,2.860E+01,3.000E-02
2.30E+02,1.396E+02,3.797E+01,2.819E+01,3.000E-02
2.31E+02,1.413E+02,3.803E+01,2.819E+01,3.000E-02
2.32E+02,1.429E+02,3.797E+01,2.792E+01,3.000E-02
2.33E+02,1.445E+02,3.810E+01,2.676E+01,3.000E-02
2.34E+02,1.462E+02,3.810E+01,2.692E+01,3.000E-02
2.35E+02,1.479E+02,3.816E+01,2.626E+01,3.000E-02
2.36E+02,1.496E+02,3.820E+01,2.591E+01,3.000E-02
2.37E+02,1.514E+02,3.824E+01,2.559E+01,3.000E-02
2.38E+02,1.531E+02,3.825E+01,2.495E+01,3.000E-02
2.39E+02,1.549E+02,3.823E+01,2.462E+01,3.000E-02
2.40E+02,1.567E+02,3.833E+01,2.390E+01,3.000E-02
2.41E+02,1.585E+02,3.819E+01,2.397E+01,3.000E-02
2.42E+02,1.603E+02,3.832E+01,2.299E+01,3.000E-02
2.43E+02,1.622E+02,3.839E+01,2.287E+01,3.000E-02
2.44E+02,1.641E+02,3.833E+01,2.255E+01,3.000E-02
2.45E+02,1.660E+02,3.836E+01,2.220E+01,3.000E-02
2.46E+02,1.679E+02,3.848E+01,2.175E+01,3.000E-02
2.47E+02,1.698E+02,3.839E+01,2.089E+01,3.000E-02
2.48E+02,1.718E+02,3.845E+01,2.069E+01,3.000E-02
2.49E+02,1.738E+02,3.849E+01,2.023E+01,3.000E-02
2.50E+02,1.758E+02,3.852E+01,1.956E+01,3.000E-02
2.51E+02,1.778E+02,3.851E+01,1.911E+01,3.000E-02
2.52E+02,1.799E+02,3.851E+01,1.914E+01,3.000E-02
2.53E+02,1.820E+02,3.860E+01,1.868E+01,3.000E-02
2.54E+02,1.841E+02,3.854E+01,1.788E+01,3.000E-02
2.55E+02,1.862E+02,3.859E+01,1.786E+01,3.000E-02
2.56E+02,1.884E+02,3.864E+01,1.704E+01,3.000E-02
2.57E+02,1.905E+02,3.868E+01,1.679E+01,3.000E-02
2.58E+02,1.928E+02,3.868E+01,1.635E+01,3.000E-02
2.59E+02,1.950E+02,3.869E+01,1.612E+01,3.000E-02
2.60E+02,1.972E+02,3.871E+01,1.559E+01,3.000E-02
2.61E+02,1.995E+02,3.868E+01,1.475E+01,3.000E-02
2.62E+02,2.018E+02,3.866E+01,1.474E+01,3.000E-02
2.63E+02,2.042E+02,3.876E+01,1.418E+01,3.000E-02
2.64E+02,2.065E+02,3.878E+01,1.380E+01,3.000E-02
2.65E+02,2.089E+02,3.882E+01,1.357E+01,3.000E-02
2.66E+02,2.113E+02,3.882E+01,1.306E+01,3.000E-02
2.67E+02,2.138E+02,3.877E+01,1.285E+01,3.000E-02
2.68E+02,2.163E+02,3.878E+01,1.190E+01,3.000E-02
2.69E+02,2.188E+02,3.875E+01,1.119E+01,3.000E-02
2.70E+02,2.213E+02,3.885E+01,1.107E+01,3.000E-02
2.71E+02,2.239E+02,3.882E+01,1.063E+01,3.000E-02
2.72E+02,2.265E+02,3.883E+01,1.052E+01,3.000E-02
2.73E+02,2.291E+02,3.884E+01,9.581E+00,3.000E-02
2.74E+02,2.317E+02,3.882E+01,9.444E+00,3.000E-02
2.75E+02,2.344E+02,3.888E+01,8.991E+00,3.000E-02
2.76E+02,2.371E+02,3.892E+01,8.205E+00,3.000E-02
2.77E+02,2.399E+02,3.898E+01,7.767E+00,3.000E-02
2.78E+02,2.427E+02,3.889E+01,7.371E+00,3.000E-02
2.79E+02,2.455E+02,3.894E+01,6.864E+00,3.000E-02
2.80E+02,2.483E+02,3.895E+01,6.816E+00,3.000E-02
2.81E+02,2.512E+02,3.891E+01,6.175E+00,3.000E-02
2.82E+02,2.541E+02,3.896E+01,5.578E+00,3.000E-02
2.83E+02,2.570E+02,3.893E+01,5.116E+00,3.000E-02
2.84E+02,2.600E+02,3.895E+01,4.778E+00,3.000E-02
2.85E+02,2.630E+02,3.895E+01,5.004E+00,3.000E-02
2.86E+02,2.661E+02,3.899E+01,3.647E+00,3.000E-02
2.87E+02,2.692E+02,3.894E+01,3.070E+00,3.000E-02
2.88E+02,2.723E+02,3.896E+01,3.065E+00,3.000E-02
2.89E+02,2.754E+02,3.900E+01,2.935E+00,3.000E-02
2.90E+02,2.786E+02,3.901E+01,2.584E+00,3.000E-02
2.91E+02,2.818E+02,3.901E+01,1.120E+00,3.000E-02
2.92E+02,2.851E+02,3.898E+01,1.161E+00,3.000E-02
2.93E+02,2.884E+02,3.902E+01,5.471E-01,3.000E-02
2.94E+02,2.917E+02,3.903E+01,1.111E-01,3.000E-02
2.95E+02,2.951E+02,3.902E+01,-5.962E-01,3.000E-02
2.96E+02,2.985E+02,3.907E+01,-1.178E+00,3.000E-02
2.97E+02,3.020E+02,3.905E+01,-8.308E-01,3.000E-02
2.98E+02,3.055E+02,3.901E+01,-1.326E+00,3.000E-02
2.99E+02,3.090E+02,3.904E+01,-2.509E+00,3.000E-02
3.00E+02,3.126E+02,3.902E+01,-2.138E+00,3.000E-02
3.01E+02,3.162E+02,3.905E+01,-3.575E+00,3.000E-02
3.02E+02,3.199E+02,3.902E+01,-2.990E+00,3.000E-02
3.03E+02,3.236E+02,3.908E+01,-3.313E+00,3.000E-02
3.04E+02,3.273E+02,3.904E+01,-4.862E+00,3.000E-02
3.05E+02,3.311E+02,3.905E+01,-5.592E+00,3.000E-02
3.06E+02,3.350E+02,3.915E+01,-5.500E+00,3.000E-02
3.07E+02,3.388E+02,3.908E+01,-5.053E+00,3.000E-02
3.08E+02,3.428E+02,3.907E+01,-6.372E+00,3.000E-02
3.09E+02,3.467E+02,3.908E+01,-6.198E+00,3.000E-02
3.10E+02,3.508E+02,3.909E+01,-7.015E+00,3.000E-02
3.11E+02,3.548E+02,3.908E+01,-6.886E+00,3.000E-02
3.12E+02,3.589E+02,3.912E+01,-8.728E+00,3.000E-02
3.13E+02,3.631E+02,3.913E+01,-8.120E+00,3.000E-02
3.14E+02,3.673E+02,3.906E+01,-8.890E+00,3.000E-02
3.15E+02,3.715E+02,3.910E+01,-9.410E+00,3.000E-02
3.16E+02,3.758E+02,3.905E+01,-9.637E+00,3.000E-02
3.17E+02,3.802E+02,3.907E+01,-1.003E+01,3.000E-02
3.18E+02,3.846E+02,3.905E+01,-1.076E+01,3.000E-02
3.19E+02,3.890E+02,3.911E+01,-1.090E+01,3.000E-02
3.20E+02,3.936E+02,3.910E+01,-1.121E+01,3.000E-02
3.21E+02,3.981E+02,3.907E+01,-1.298E+01,3.000E-02
3.22E+02,4.027E+02,3.906E+01,-1.279E+01,3.000E-02
3.23E+02,4.074E+02,3.908E+01,-1.268E+01,3.000E-02
3.24E+02,4.121E+02,3.913E+01,-1.381E+01,3.000E-02
3.25E+02,4.169E+02,3.898E+01,-1.401E+01,3.000E-02
3.26E+02,4.217E+02,3.903E+01,-1.477E+01,3.000E-02
3.27E+02,4.266E+02,3.907E+01,-1.544E+01,3.000E-02
3.28E+02,4.315E+02,3.903E+01,-1.613E+01,3.000E-02
3.29E+02,4.365E+02,3.912E+01,-1.691E+01,3.000E-02
3.30E+02,4.416E+02,3.904E+01,-1.675E+01,3.000E-02
3.31E+02,4.467E+02,3.906E+01,-1.632E+01,3.000E-02
3.32E+02,4.519E+02,3.905E+01,-1.792E+01,3.000E-02
3.33E+02,4.571E+02,3.908E+01,-1.870E+01,3.000E-02
3.34E+02,4.624E+02,3.906E+01,-1.871E+01,3.000E-02
3.35E+02,4.677E+02,3.903E+01,-1.858E+01,3.000E-02
3.36E+02,4.732E+02,3.904E+01,-1.965E+01,3.000E-02
3.37E+02,4.786E+02,3.912E+01,-1.953E+01,3.000E-02
3.38E+02,4.842E+02,3.908E+01,-2.072E+01,3.000E-02
3.39E+02,4.898E+02,3.910E+01,-2.133E+01,3.000E-02
3.40E+02,4.955E+02,3.907E+01,-2.203E+01,3.000E-02
3.41E+02,5.012E+02,3.911E+01,-2.179E+01,3.000E-02
3.42E+02,5.070E+02,3.898E+01,-2.208E+01,3.000E-02
3.43E+02,5.129E+02,3.908E+01,-2.363E+01,3.000E-02
3.44E+02,5.188E+02,3.904E+01,-2.356E+01,3.000E-02
3.45E+02,5.248E+02,3.906E+01,-2.379E+01,3.000E-02
3.46E+02,5.309E+02,3.908E+01,-2.430E+01,3.000E-02
3.47E+02,5.370E+02,3.902E+01,-2.482E+01,3.000E-02
3.48E+02,5.433E+02,3.899E+01,-2.645E+01,3.000E-02
3.49E+02,5.495E+02,3.904E+01,-2.661E+01,3.000E-02
3.50E+02,5.559E+02,3.912E+01,-2.718E+01,3.000E-02
3.51E+02,5.623E+02,3.911E+01,-2.695E+01,3.000E-02
3.52E+02,5.689E+02,3.904E+01,-2.795E+01,3.000E-02
3.53E+02,5.754E+02,3.905E+01,-2.858E+01,3.000E-02
3.54E+02,5.821E+02,3.908E+01,-2.927E+01,3.000E-02
3.55E+02,5.888E+02,3.909E+01,-2.922E+01,3.000E-02
3.56E+02,5.957E+02,3.907E+01,-3.007E+01,3.000E-02
3.57E+02,6.026E+02,3.909E+01,-3.092E+01,3.000E-02
3.58E+02,6.095E+02,3.904E+01,-3.126E+01,3.000E-02
3.59E+02,6.166E+02,3.907E+01,-3.197E+01,3.000E-02
3.60E+02,6.237E+02,3.905E+01,-3.193E+01,3.000E-02
3.61E+02,6.310E+02,3.903E+01,-3.354E+01,3.000E-02
3.62E+02,6.383E+02,3.909E+01,-3.321E+01,3.000E-02
3.63E+02,6.457E+02,3.906E+01,-3.463E+01,3.000E-02
3.64E+02,6.531E+02,3.904E+01,-3.398E+01,3.000E-02
3.65E+02,6.607E+02,3.907E+01,-3.542E+01,3.000E-02
3.66E+02,6.683E+02,3.901E+01,-3.551E+01,3.000E-02
3.67E+02,6.761E+02,3.905E+01,-3.689E+01,3.000E-02
3.68E+02,6.839E+02,3.908E+01,-3.764E+01,3.000E-02
3.69E+02,6.918E+02,3.904E+01,-3.626E+01,3.000E-02
3.70E+02,6.998E+02,3.902E+01,-3.864E+01,3.000E-02
3.71E+02,7.079E+02,3.909E+01,-3.896E+01,3.000E-02
3.72E+02,7.161E+02,3.907E+01,-3.953E+01,3.000E-02
3.73E+02,7.244E+02,3.913E+01,-4.023E+01,3.000E-02
3.74E+02,7.328E+02,3.908E+01,-4.063E+01,3.000E-02
3.75E+02,7.413E+02,3.909E+01,-4.026E+01,3.000E-02
3.76E+02,7.499E+02,3.910E+01,-4.253E+01,3.000E-02
3.77E+02,7.586E+02,3.902E+01,-4.256E+01,3.000E-02
3.78E+02,7.674E+02,3.909E+01,-4.340E+01,3.000E-02
3.79E+02,7.762E+02,3.908E+01,-4.411E+01,3.000E-02
3.80E+02,7.852E+02,3.907E+01,-4.415E+01,3.000E-02
3.81E+02,7.943E+02,3.911E+01,-4.497E+01,3.000E-02
3.82E+02,8.035E+02,3.909E+01,-4.513E+01,3.000E-02
3.83E+02,8.128E+02,3.910E+01,-4.664E+01,3.000E-02
3.84E+02,8.222E+02,3.914E+01,-4.677E+01,3.000E-02
3.85E+02,8.318E+02,3.913E+01,-4.900E+01,3.000E-02
3.86E+02,8.414E+02,3.910E+01,-4.844E+01,3.000E-02
3.87E+02,8.511E+02,3.913E+01,-5.010E+01,3.000E-02
3.88E+02,8.610E+02,3.905E+01,-5.004E+01,3.000E-02
3.89E+02,8.710E+02,3.917E+01,-5.063E+01,3.000E-02
3.90E+02,8.810E+02,3.908E+01,-5.216E+01,3.000E-02
3.91E+02,8.913E+02,3.912E+01,-5.133E+01,3.000E-02
3.92E+02,9.016E+02,3.916E+01,-5.361E+01,3.000E-02
3.93E+02,9.120E+02,3.914E+01,-5.373E+01,3.000E-02
3.94E+02,9.226E+02,3.916E+01,-5.419E+01,3.000E-02
3.95E+02,9.333E+02,3.918E+01,-5.584E+01,3.000E-02
3.96E+02,9.441E+02,3.922E+01,-5.604E+01,3.000E-02
