in Sa,Frequency in Hz,Gain in dB,Phase in °,Amplitude in Vpp
1.00E+00,1.000E+01,1.935E+01,8.436E+01,4.000E-02
2.00E+00,1.012E+01,1.941E+01,8.426E+01,4.000E-02
3.00E+00,1.023E+01,1.959E+01,8.413E+01,4.000E-02
4.00E+00,1.035E+01,1.975E+01,8.418E+01,4.000E-02
5.00E+00,1.047E+01,1.975E+01,8.419E+01,4.000E-02
6.00E+00,1.059E+01,1.985E+01,8.427E+01,4.000E-02
7.00E+00,1.072E+01,1.988E+01,8.388E+01,4.000E-02
8.00E+00,1.084E+01,1.996E+01,8.358E+01,4.000E-02
9.00E+00,1.096E+01,2.011E+01,8.398E+01,4.000E-02
1.00E+01,1.109E+01,2.028E+01,8.376E+01,4.000E-02
1.10E+01,1.122E+01,2.033E+01,8.368E+01,4.000E-02
1.20E+01,1.135E+01,2.043E+01,8.350E+01,4.000E-02
1.30E+01,1.148E+01,2.052E+01,8.358E+01,4.000E-02
1.40E+01,1.161E+01,2.062E+01,8.306E+01,4.000E-02
1.50E+01,1.175E+01,2.076E+01,8.343E+01,4.000E-02
1.60E+01,1.189E+01,2.086E+01,8.355E+01,4.000E-02
1.70E+01,1.202E+01,2.089E+01,8.302E+01,4.000E-02
1.80E+01,1.216E+01,2.103E+01,8.300E+01,4.000E-02
1.90E+01,1.230E+01,2.112E+01,8.267E+01,4.000E-02
2.00E+01,1.245E+01,2.117E+01,8.259E+01,4.000E-02
2.10E+01,1.259E+01,2.133E+01,8.276E+01,4.000E-02
2.20E+01,1.274E+01,2.139E+01,8.295E+01,4.000E-02
2.30E+01,1.288E+01,2.150E+01,8.300E+01,4.000E-02
2.40E+01,1.303E+01,2.157E+01,8.247E+01,4.000E-02
2.50E+01,1.318E+01,2.172E+01,8.209E+01,4.000E-02
2.60E+01,1.334E+01,2.183E+01,8.235E+01,4.000E-02
2.70E+01,1.349E+01,2.189E+01,8.188E+01,4.000E-02
2.80E+01,1.365E+01,2.196E+01,8.213E+01,4.000E-02
2.90E+01,1.380E+01,2.212E+01,8.208E+01,4.000E-02
3.00E+01,1.396E+01,2.219E+01,8.173E+01,4.000E-02
3.10E+01,1.413E+01,2.227E+01,8.199E+01,4.000E-02
3.20E+01,1.429E+01,2.240E+01,8.216E+01,4.000E-02
3.30E+01,1.445E+01,2.257E+01,8.147E+01,4.000E-02
3.40E+01,1.462E+01,2.260E+01,8.183E+01,4.000E-02
3.50E+01,1.479E+01,2.268E+01,8.156E+01,4.000E-02
3.60E+01,1.496E+01,2.283E+01,8.129E+01,4.000E-02
3.70E+01,1.514E+01,2.290E+01,8.127E+01,4.000E-02
3.80E+01,1.531E+01,2.298E+01,8.127E+01,4.000E-02
3.90E+01,1.549E+01,2.304E+01,8.102E+01,4.000E-02
4.00E+01,1.567E+01,2.316E+01,8.089E+01,4.000E-02
4.10E+01,1.585E+01,2.329E+01,8.081E+01,4.000E-02
4.20E+01,1.603E+01,2.343E+01,8.075E+01,4.000E-02
4.30E+01,1.622E+01,2.348E+01,8.070E+01,4.000E-02
4.40E+01,1.641E+01,2.351E+01,8.025E+01,4.000E-02
4.50E+01,1.660E+01,2.362E+01,8.034E+01,4.000E-02
4.60E+01,1.679E+01,2.376E+01,8.008E+01,4.000E-02
4.70E+01,1.698E+01,2.385E+01,8.000E+01,4.000E-02
4.80E+01,1.718E+01,2.399E+01,8.010E+01,4.000E-02
4.90E+01,1.738E+01,2.404E+01,7.980E+01,4.000E-02
5.00E+01,1.758E+01,2.417E+01,7.954E+01,4.000E-02
5.10E+01,1.778E+01,2.430E+01,7.983E+01,4.000E-02
5.20E+01,1.799E+01,2.435E+01,7.957E+01,4.000E-02
5.30E+01,1.820E+01,2.451E+01,7.945E+01,4.000E-02
5.40E+01,1.841E+01,2.456E+01,7.916E+01,4.000E-02
5.50E+01,1.862E+01,2.466E+01,7.932E+01,4.000E-02
5.60E+01,1.884E+01,2.477E+01,7.927E+01,4.000E-02
5.70E+01,1.905E+01,2.485E+01,7.899E+01,4.000E-02
5.80E+01,1.928E+01,2.499E+01,7.876E+01,4.000E-02
5.90E+01,1.950E+01,2.504E+01,7.874E+01,4.000E-02
6.00E+01,1.972E+01,2.511E+01,7.856E+01,4.000E-02
6.10E+01,1.995E+01,2.525E+01,7.842E+01,4.000E-02
6.20E+01,2.018E+01,2.537E+01,7.832E+01,4.000E-02
6.30E+01,2.042E+01,2.540E+01,7.803E+01,4.000E-02
6.40E+01,2.065E+01,2.560E+01,7.780E+01,4.000E-02
6.50E+01,2.089E+01,2.562E+01,7.812E+01,4.000E-02
6.60E+01,2.113E+01,2.570E+01,7.765E+01,4.000E-02
6.70E+01,2.138E+01,2.582E+01,7.746E+01,4.000E-02
6.80E+01,2.163E+01,2.586E+01,7.758E+01,4.000E-02
6.90E+01,2.188E+01,2.605E+01,7.724E+01,4.000E-02
7.00E+01,2.213E+01,2.608E+01,7.701E+01,4.000E-02
7.10E+01,2.239E+01,2.624E+01,7.723E+01,4.000E-02
7.20E+01,2.265E+01,2.627E+01,7.692E+01,4.000E-02
7.30E+01,2.291E+01,2.641E+01,7.664E+01,4.000E-02
7.40E+01,2.317E+01,2.653E+01,7.641E+01,4.000E-02
7.50E+01,2.344E+01,2.654E+01,7.618E+01,4.000E-02
7.60E+01,2.371E+01,2.670E+01,7.632E+01,4.000E-02
7.70E+01,2.399E+01,2.677E+01,7.556E+01,4.000E-02
7.80E+01,2.427E+01,2.688E+01,7.603E+01,4.000E-02
7.90E+01,2.455E+01,2.694E+01,7.573E+01,4.000E-02
8.00E+01,2.483E+01,2.713E+01,7.555E+01,4.000E-02
8.10E+01,2.512E+01,2.713E+01,7.572E+01,4.000E-02
8.20E+01,2.541E+01,2.721E+01,7.524E+01,4.000E-02
8.30E+01,2.570E+01,2.732E+01,7.497E+01,4.000E-02
8.40E+01,2.600E+01,2.742E+01,7.500E+01,4.000E-02
8.50E+01,2.630E+01,2.751E+01,7.474E+01,4.000E-02
8.60E+01,2.661E+01,2.760E+01,7.443E+01,4.000E-02
8.70E+01,2.692E+01,2.774E+01,7.431E+01,4.000E-02
8.80E+01,2.723E+01,2.780E+01,7.421E+01,4.000E-02
8.90E+01,2.754E+01,2.789E+01,7.378E+01,4.000E-02
9.00E+01,2.786E+01,2.800E+01,7.362E+01,4.000E-02
9.10E+01,2.818E+01,2.809E+01,7.376E+01,4.000E-02
9.20E+01,2.851E+01,2.819E+01,7.349E+01,4.000E-02
9.30E+01,2.884E+01,2.826E+01,7.335E+01,4.000E-02
9.40E+01,2.917E+01,2.832E+01,7.270E+01,4.000E-02
9.50E+01,2.951E+01,2.852E+01,7.292E+01,4.000E-02
9.60E+01,2.985E+01,2.858E+01,7.255E+01,4.000E-02
9.70E+01,3.020E+01,2.860E+01,7.252E+01,4.000E-02
9.80E+01,3.055E+01,2.869E+01,7.240E+01,4.000E-02
9.90E+01,3.090E+01,2.880E+01,7.188E+01,4.000E-02
1.00E+02,3.126E+01,2.884E+01,7.167E+01,4.000E-02
1.01E+02,3.162E+01,2.896E+01,7.174E+01,4.000E-02
1.02E+02,3.199E+01,2.906E+01,7.124E+01,4.000E-02
1.03E+02,3.236E+01,2.917E+01,7.117E+01,4.000E-02
1.04E+02,3.273E+01,2.925E+01,7.103E+01,4.000E-02
1.05E+02,3.311E+01,2.935E+01,7.073E+01,4.000E-02
1.06E+02,3.350E+01,2.942E+01,7.054E+01,4.000E-02
1.07E+02,3.388E+01,2.953E+01,7.020E+01,4.000E-02
1.08E+02,3.428E+01,2.963E+01,7.012E+01,4.000E-02
1.09E+02,3.467E+01,2.970E+01,7.010E+01,4.000E-02
1.10E+02,3.508E+01,2.976E+01,6.955E+01,4.000E-02
1.11E+02,3.548E+01,2.986E+01,6.948E+01,4.000E-02
1.12E+02,3.589E+01,2.997E+01,6.902E+01,4.000E-02
1.13E+02,3.631E+01,3.004E+01,6.914E+01,4.000E-02
1.14E+02,3.673E+01,3.015E+01,6.880E+01,4.000E-02
1.15E+02,3.715E+01,3.024E+01,6.865E+01,4.000E-02
1.16E+02,3.758E+01,3.032E+01,6.844E+01,4.000E-02
1.17E+02,3.802E+01,3.038E+01,6.804E+01,4.000E-02
1.18E+02,3.846E+01,3.054E+01,6.804E+01,4.000E-02
1.19E+02,3.890E+01,3.057E+01,6.773E+01,4.000E-02
1.20E+02,3.936E+01,3.070E+01,6.736E+01,4.000E-02
1.21E+02,3.981E+01,3.075E+01,6.742E+01,4.000E-02
1.22E+02,4.027E+01,3.086E+01,6.708E+01,4.000E-02
1.23E+02,4.074E+01,3.097E+01,6.659E+01,4.000E-02
1.24E+02,4.121E+01,3.099E+01,6.672E+01,4.000E-02
1.25E+02,4.169E+01,3.105E+01,6.617E+01,4.000E-02
1.26E+02,4.217E+01,3.122E+01,6.572E+01,4.000E-02
1.27E+02,4.266E+01,3.127E+01,6.532E+01,4.000E-02
1.28E+02,4.315E+01,3.143E+01,6.516E+01,4.000E-02
1.29E+02,4.365E+01,3.149E+01,6.507E+01,4.000E-02
1.30E+02,4.416E+01,3.154E+01,6.463E+01,4.000E-02
1.31E+02,4.467E+01,3.160E+01,6.460E+01,4.000E-02
1.32E+02,4.519E+01,3.172E+01,6.431E+01,4.000E-02
1.33E+02,4.571E+01,3.179E+01,6.386E+01,4.000E-02
1.34E+02,4.624E+01,3.188E+01,6.378E+01,4.000E-02
1.35E+02,4.677E+01,3.199E+01,6.353E+01,4.000E-02
1.36E+02,4.732E+01,3.207E+01,6.329E+01,4.000E-02
1.37E+02,4.786E+01,3.212E+01,6.297E+01,4.000E-02
1.38E+02,4.842E+01,3.219E+01,6.251E+01,4.000E-02
1.39E+02,4.898E+01,3.234E+01,6.248E+01,4.000E-02
1.40E+02,4.955E+01,3.244E+01,6.198E+01,4.000E-02
1.41E+02,5.012E+01,3.245E+01,6.161E+01,4.000E-02
1.42E+02,5.070E+01,3.258E+01,6.156E+01,4.000E-02
1.43E+02,5.129E+01,3.262E+01,6.139E+01,4.000E-02
1.44E+02,5.188E+01,3.267E+01,6.084E+01,4.000E-02
1.45E+02,5.248E+01,3.281E+01,6.049E+01,4.000E-02
1.46E+02,5.309E+01,3.286E+01,6.042E+01,4.000E-02
1.47E+02,5.370E+01,3.293E+01,6.006E+01,4.000E-02
1.48E+02,5.433E+01,3.307E+01,6.005E+01,4.000E-02
1.49E+02,5.495E+01,3.311E+01,5.967E+01,4.000E-02
1.50E+02,5.559E+01,3.318E+01,5.935E+01,4.000E-02
1.51E+02,5.623E+01,3.325E+01,5.888E+01,4.000E-02
1.52E+02,5.689E+01,3.336E+01,5.846E+01,4.000E-02
1.53E+02,5.754E+01,3.344E+01,5.821E+01,4.000E-02
1.54E+02,5.821E+01,3.352E+01,5.791E+01,4.000E-02
1.55E+02,5.888E+01,3.358E+01,5.770E+01,4.000E-02
1.56E+02,5.957E+01,3.367E+01,5.747E+01,4.000E-02
1.57E+02,6.026E+01,3.374E+01,5.687E+01,4.000E-02
1.58E+02,6.095E+01,3.382E+01,5.685E+01,4.000E-02
1.59E+02,6.166E+01,3.389E+01,5.620E+01,4.000E-02
1.60E+02,6.237E+01,3.401E+01,5.609E+01,4.000E-02
1.61E+02,6.310E+01,3.406E+01,5.567E+01,4.000E-02
1.62E+02,6.383E+01,3.411E+01,5.515E+01,4.000E-02
1.63E+02,6.457E+01,3.418E+01,5.482E+01,4.000E-02
1.64E+02,6.531E+01,3.430E+01,5.471E+01,4.000E-02
1.65E+02,6.607E+01,3.436E+01,5.435E+01,4.000E-02
1.66E+02,6.683E+01,3.441E+01,5.391E+01,4.000E-02
1.67E+02,6.761E+01,3.450E+01,5.355E+01,4.000E-02
1.68E+02,6.839E+01,3.455E+01,5.320E+01,4.000E-02
1.69E+02,6.918E+01,3.465E+01,5.308E+01,4.000E-02
1.70E+02,6.998E+01,3.472E+01,5.226E+01,4.000E-02
1.71E+02,7.079E+01,3.476E+01,5.194E+01,4.000E-02
1.72E+02,7.161E+01,3.484E+01,5.186E+01,4.000E-02
1.73E+02,7.244E+01,3.491E+01,5.148E+01,4.000E-02
1.74E+02,7.328E+01,3.497E+01,5.133E+01,4.000E-02
1.75E+02,7.413E+01,3.503E+01,5.085E+01,4.000E-02
1.76E+02,7.499E+01,3.512E+01,5.047E+01,4.000E-02
1.77E+02,7.586E+01,3.516E+01,5.026E+01,4.000E-02
1.78E+02,7.674E+01,3.520E+01,4.964E+01,4.000E-02
1.79E+02,7.762E+01,3.534E+01,4.919E+01,4.000E-02
1.80E+02,7.852E+01,3.536E+01,4.889E+01,4.000E-02
1.81E+02,7.943E+01,3.541E+01,4.848E+01,4.000E-02
1.82E+02,8.035E+01,3.548E+01,4.805E+01,4.000E-02
1.83E+02,8.128E+01,3.554E+01,4.769E+01,4.000E-02
1.84E+02,8.222E+01,3.561E+01,4.746E+01,4.000E-02
1.85E+02,8.318E+01,3.565E+01,4.709E+01,4.000E-02
1.86E+02,8.414E+01,3.572E+01,4.661E+01,4.000E-02
1.87E+02,8.511E+01,3.579E+01,4.625E+01,4.000E-02
1.88E+02,8.610E+01,3.583E+01,4.568E+01,4.000E-02
1.89E+02,8.710E+01,3.590E+01,4.536E+01,4.000E-02
1.90E+02,8.810E+01,3.591E+01,4.505E+01,4.000E-02
1.91E+02,8.913E+01,3.592E+01,4.454E+01,4.000E-02
1.92E+02,9.016E+01,3.600E+01,4.424E+01,4.000E-02
1.93E+02,9.120E+01,3.604E+01,4.388E+01,4.000E-02
1.94E+02,9.226E+01,3.608E+01,4.339E+01,4.000E-02
1.95E+02,9.333E+01,3.612E+01,4.300E+01,4.000E-02
1.96E+02,9.441E+01,3.616E+01,4.253E+01,4.000E-02
1.97E+02,9.550E+01,3.620E+01,4.230E+01,4.000E-02
1.98E+02,9.661E+01,3.623E+01,4.174E+01,4.000E-02
1.99E+02,9.772E+01,3.628E+01,4.158E+01,4.000E-02
2.00E+02,9.886E+01,3.630E+01,4.100E+01,4.000E-02
2.01E+02,1.000E+02,3.632E+01,4.045E+01,4.000E-02
2.02E+02,1.012E+02,3.636E+01,4.028E+01,4.000E-02
2.03E+02,1.023E+02,3.639E+01,3.986E+01,4.000E-02
2.04E+02,1.035E+02,3.642E+01,3.934E+01,4.000E-02
2.05E+02,1.047E+02,3.643E+01,3.901E+01,4.000E-02
2.06E+02,1.059E+02,3.646E+01,3.868E+01,4.000E-02
2.07E+02,1.072E+02,3.647E+01,3.804E+01,4.000E-02
2.08E+02,1.084E+02,3.651E+01,3.791E+01,4.000E-02
2.09E+02,1.096E+02,3.654E+01,3.741E+01,4.000E-02
2.10E+02,1.109E+02,3.655E+01,3.706E+01,4.000E-02
2.11E+02,1.122E+02,3.656E+01,3.666E+01,4.000E-02
2.12E+02,1.135E+02,3.660E+01,3.602E+01,4.000E-02
2.13E+02,1.148E+02,3.665E+01,3.572E+01,4.000E-02
2.14E+02,1.161E+02,3.666E+01,3.547E+01,4.000E-02
2.15E+02,1.175E+02,3.666E+01,3.477E+01,4.000E-02
2.16E+02,1.189E+02,3.666E+01,3.454E+01,4.000E-02
2.17E+02,1.202E+02,3.671E+01,3.402E+01,4.000E-02
2.18E+02,1.216E+02,3.674E+01,3.336E+01,4.000E-02
2.19E+02,1.230E+02,3.676E+01,3.321E+01,4.000E-02
2.20E+02,1.245E+02,3.675E+01,3.235E+01,4.000E-02
2.21E+02,1.259E+02,3.675E+01,3.246E+01,4.000E-02
2.22E+02,1.274E+02,3.680E+01,3.167E+01,4.000E-02
2.23E+02,1.288E+02,3.680E+01,3.137E+01,4.000E-02
2.24E+02,1.303E+02,3.683E+01,3.085E+01,4.000E-02
2.25E+02,1.318E+02,3.682E+01,3.049E+01,4.000E-02
2.26E+02,1.334E+02,3.687E+01,3.001E+01,4.000E-02
2.27E+02,1.349E+02,3.687E+01,2.978E+01,4.000E-02
2.28E+02,1.365E+02,3.687E+01,2.919E+01,4.000E-02
2.29E+02,1.380E+02,3.692E+01,2.882E+01,4.000E-02
2.30E+02,1.396E+02,3.690E+01,2.854E+01,4.000E-02
2.31E+02,1.413E+02,3.694E+01,2.808E+01,4.000E-02
2.32E+02,1.429E+02,3.696E+01,2.725E+01,4.000E-02
2.33E+02,1.445E+02,3.697E+01,2.700E+01,4.000E-02
2.34E+02,1.462E+02,3.697E+01,2.686E+01,4.000E-02
2.35E+02,1.479E+02,3.697E+01,2.634E+01,4.000E-02
2.36E+02,1.496E+02,3.699E+01,2.573E+01,4.000E-02
2.37E+02,1.514E+02,3.700E+01,2.551E+01,4.000E-02
2.38E+02,1.531E+02,3.702E+01,2.531E+01,4.000E-02
2.39E+02,1.549E+02,3.704E+01,2.470E+01,4.000E-02
2.40E+02,1.567E+02,3.707E+01,2.397E+01,4.000E-02
2.41E+02,1.585E+02,3.704E+01,2.353E+01,4.000E-02
2.42E+02,1.603E+02,3.705E+01,2.305E+01,4.000E-02
2.43E+02,1.622E+02,3.710E+01,2.257E+01,4.000E-02
2.44E+02,1.641E+02,3.709E+01,2.223E+01,4.000E-02
2.45E+02,1.660E+02,3.711E+01,2.183E+01,4.000E-02
2.46E+02,1.679E+02,3.711E+01,2.139E+01,4.000E-02
2.47E+02,1.698E+02,3.713E+01,2.102E+01,4.000E-02
2.48E+02,1.718E+02,3.714E+01,2.070E+01,4.000E-02
2.49E+02,1.738E+02,3.714E+01,2.011E+01,4.000E-02
2.50E+02,1.758E+02,3.715E+01,1.948E+01,4.000E-02
2.51E+02,1.778E+02,3.717E+01,1.938E+01,4.000E-02
2.52E+02,1.799E+02,3.717E+01,1.881E+01,4.000E-02
2.53E+02,1.820E+02,3.719E+01,1.839E+01,4.000E-02
2.54E+02,1.841E+02,3.716E+01,1.786E+01,4.000E-02
2.55E+02,1.862E+02,3.717E+01,1.728E+01,4.000E-02
2.56E+02,1.884E+02,3.721E+01,1.675E+01,4.000E-02
2.57E+02,1.905E+02,3.721E+01,1.663E+01,4.000E-02
2.58E+02,1.928E+02,3.720E+01,1.604E+01,4.000E-02
2.59E+02,1.950E+02,3.720E+01,1.557E+01,4.000E-02
2.60E+02,1.972E+02,3.722E+01,1.509E+01,4.000E-02
2.61E+02,1.995E+02,3.722E+01,1.464E+01,4.000E-02
2.62E+02,2.018E+02,3.727E+01,1.428E+01,4.000E-02
2.63E+02,2.042E+02,3.725E+01,1.374E+01,4.000E-02
2.64E+02,2.065E+02,3.723E+01,1.349E+01,4.000E-02
2.65E+02,2.089E+02,3.724E+01,1.324E+01,4.000E-02
2.66E+02,2.113E+02,3.728E+01,1.257E+01,4.000E-02
2.67E+02,2.138E+02,3.726E+01,1.203E+01,4.000E-02
2.68E+02,2.163E+02,3.727E+01,1.182E+01,4.000E-02
2.69E+02,2.188E+02,3.728E+01,1.162E+01,4.000E-02
2.70E+02,2.213E+02,3.728E+01,1.093E+01,4.000E-02
2.71E+02,2.239E+02,3.731E+01,1.012E+01,4.000E-02
2.72E+02,2.265E+02,3.730E+01,1.024E+01,4.000E-02
2.73E+02,2.291E+02,3.731E+01,9.015E+00,4.000E-02
2.74E+02,2.317E+02,3.729E+01,8.886E+00,4.000E-02
2.75E+02,2.344E+02,3.732E+01,8.578E+00,4.000E-02
2.76E+02,2.371E+02,3.732E+01,7.823E+00,4.000E-02
2.77E+02,2.399E+02,3.731E+01,7.567E+00,4.000E-02
2.78E+02,2.427E+02,3.733E+01,7.324E+00,4.000E-02
2.79E+02,2.455E+02,3.733E+01,6.486E+00,4.000E-02
2.80E+02,2.483E+02,3.733E+01,5.946E+00,4.000E-02
2.81E+02,2.512E+02,3.732E+01,5.812E+00,4.000E-02
2.82E+02,2.541E+02,3.731E+01,5.355E+00,4.000E-02
2.83E+02,2.570E+02,3.732E+01,4.711E+00,4.000E-02
2.84E+02,2.600E+02,3.735E+01,4.429E+00,4.000E-02
2.85E+02,2.630E+02,3.736E+01,4.183E+00,4.000E-02
2.86E+02,2.661E+02,3.733E+01,3.398E+00,4.000E-02
2.87E+02,2.692E+02,3.734E+01,2.890E+00,4.000E-02
2.88E+02,2.723E+02,3.734E+01,2.689E+00,4.000E-02
2.89E+02,2.754E+02,3.734E+01,2.149E+00,4.000E-02
2.90E+02,2.786E+02,3.734E+01,1.864E+00,4.000E-02
2.91E+02,2.818E+02,3.737E+01,1.119E+00,4.000E-02
2.92E+02,2.851E+02,3.736E+01,9.516E-01,4.000E-02
2.93E+02,2.884E+02,3.735E+01,3.318E-01,4.000E-02
2.94E+02,2.917E+02,3.737E+01,-4.221E-01,4.000E-02
2.95E+02,2.951E+02,3.735E+01,-4.501E-01,4.000E-02
2.96E+02,2.985E+02,3.737E+01,-1.078E+00,4.000E-02
2.97E+02,3.020E+02,3.737E+01,-1.896E+00,4.000E-02
2.98E+02,3.055E+02,3.740E+01,-2.145E+00,4.000E-02
2.99E+02,3.090E+02,3.735E+01,-2.573E+00,4.000E-02
3.00E+02,3.126E+02,3.735E+01,-3.003E+00,4.000E-02
3.01E+02,3.162E+02,3.736E+01,-3.581E+00,4.000E-02
3.02E+02,3.199E+02,3.736E+01,-3.812E+00,4.000E-02
3.03E+02,3.236E+02,3.737E+01,-4.200E+00,4.000E-02
3.04E+02,3.273E+02,3.735E+01,-4.859E+00,4.000E-02
3.05E+02,3.311E+02,3.735E+01,-5.221E+00,4.000E-02
3.06E+02,3.350E+02,3.736E+01,-5.331E+00,4.000E-02
3.07E+02,3.388E+02,3.739E+01,-6.142E+00,4.000E-02
3.08E+02,3.428E+02,3.737E+01,-6.424E+00,4.000E-02
3.09E+02,3.467E+02,3.735E+01,-7.857E+00,4.000E-02
3.10E+02,3.508E+02,3.736E+01,-7.454E+00,4.000E-02
3.11E+02,3.548E+02,3.737E+01,-8.353E+00,4.000E-02
3.12E+02,3.589E+02,3.736E+01,-8.400E+00,4.000E-02
3.13E+02,3.631E+02,3.737E+01,-9.157E+00,4.000E-02
3.14E+02,3.673E+02,3.736E+01,-9.335E+00,4.000E-02
3.15E+02,3.715E+02,3.735E+01,-1.018E+01,4.000E-02
3.16E+02,3.758E+02,3.733E+01,-1.030E+01,4.000E-02
3.17E+02,3.802E+02,3.736E+01,-1.117E+01,4.000E-02
3.18E+02,3.846E+02,3.732E+01,-1.169E+01,4.000E-02
3.19E+02,3.890E+02,3.735E+01,-1.189E+01,4.000E-02
3.20E+02,3.936E+02,3.737E+01,-1.225E+01,4.000E-02
3.21E+02,3.981E+02,3.735E+01,-1.277E+01,4.000E-02
3.22E+02,4.027E+02,3.735E+01,-1.340E+01,4.000E-02
3.23E+02,4.074E+02,3.735E+01,-1.336E+01,4.000E-02
3.24E+02,4.121E+02,3.734E+01,-1.423E+01,4.000E-02
3.25E+02,4.169E+02,3.731E+01,-1.431E+01,4.000E-02
3.26E+02,4.217E+02,3.733E+01,-1.491E+01,4.000E-02
3.27E+02,4.266E+02,3.732E+01,-1.603E+01,4.000E-02
3.28E+02,4.315E+02,3.734E+01,-1.679E+01,4.000E-02
3.29E+02,4.365E+02,3.730E+01,-1.652E+01,4.000E-02
3.30E+02,4.416E+02,3.734E+01,-1.693E+01,4.000E-02
3.31E+02,4.467E+02,3.729E+01,-1.703E+01,4.000E-02
3.32E+02,4.519E+02,3.732E+01,-1.815E+01,4.000E-02
3.33E+02,4.571E+02,3.729E+01,-1.858E+01,4.000E-02
3.34E+02,4.624E+02,3.733E+01,-1.948E+01,4.000E-02
3.35E+02,4.677E+02,3.732E+01,-1.949E+01,4.000E-02
3.36E+02,4.732E+02,3.733E+01,-2.064E+01,4.000E-02
3.37E+02,4.786E+02,3.731E+01,-2.053E+01,4.000E-02
3.38E+02,4.842E+02,3.729E+01,-2.137E+01,4.000E-02
3.39E+02,4.898E+02,3.730E+01,-2.186E+01,4.000E-02
3.40E+02,4.955E+02,3.728E+01,-2.216E+01,4.000E-02
3.41E+02,5.012E+02,3.730E+01,-2.213E+01,4.000E-02
3.42E+02,5.070E+02,3.732E+01,-2.312E+01,4.000E-02
3.43E+02,5.129E+02,3.727E+01,-2.374E+01,4.000E-02
3.44E+02,5.188E+02,3.731E+01,-2.399E+01,4.000E-02
3.45E+02,5.248E+02,3.730E+01,-2.440E+01,4.000E-02
3.46E+02,5.309E+02,3.728E+01,-2.502E+01,4.000E-02
3.47E+02,5.370E+02,3.730E+01,-2.566E+01,4.000E-02
3.48E+02,5.433E+02,3.727E+01,-2.608E+01,4.000E-02
3.49E+02,5.495E+02,3.724E+01,-2.673E+01,4.000E-02
3.50E+02,5.559E+02,3.729E+01,-2.734E+01,4.000E-02
3.51E+02,5.623E+02,3.725E+01,-2.709E+01,4.000E-02
3.52E+02,5.689E+02,3.728E+01,-2.791E+01,4.000E-02
3.53E+02,5.754E+02,3.727E+01,-2.889E+01,4.000E-02
3.54E+02,5.821E+02,3.729E+01,-2.919E+01,4.000E-02
3.55E+02,5.888E+02,3.728E+01,-2.975E+01,4.000E-02
3.56E+02,5.957E+02,3.727E+01,-2.972E+01,4.000E-02
3.57E+02,6.026E+02,3.727E+01,-3.034E+01,4.000E-02
3.58E+02,6.095E+02,3.727E+01,-3.115E+01,4.000E-02
3.59E+02,6.166E+02,3.727E+01,-3.165E+01,4.000E-02
3.60E+02,6.237E+02,3.726E+01,-3.226E+01,4.000E-02
3.61E+02,6.310E+02,3.728E+01,-3.218E+01,4.000E-02
3.62E+02,6.383E+02,3.726E+01,-3.353E+01,4.000E-02
3.63E+02,6.457E+02,3.730E+01,-3.296E+01,4.000E-02
3.64E+02,6.531E+02,3.725E+01,-3.453E+01,4.000E-02
3.65E+02,6.607E+02,3.727E+01,-3.461E+01,4.000E-02
3.66E+02,6.683E+02,3.728E+01,-3.536E+01,4.000E-02
3.67E+02,6.761E+02,3.724E+01,-3.587E+01,4.000E-02
3.68E+02,6.839E+02,3.725E+01,-3.695E+01,4.000E-02
3.69E+02,6.918E+02,3.726E+01,-3.707E+01,4.000E-02
3.70E+02,6.998E+02,3.727E+01,-3.779E+01,4.000E-02
3.71E+02,7.079E+02,3.728E+01,-3.799E+01,4.000E-02
3.72E+02,7.161E+02,3.727E+01,-3.843E+01,4.000E-02
3.73E+02,7.244E+02,3.730E+01,-3.874E+01,4.000E-02
3.74E+02,7.328E+02,3.730E+01,-4.021E+01,4.000E-02
3.75E+02,7.413E+02,3.727E+01,-4.045E+01,4.000E-02
3.76E+02,7.499E+02,3.728E+01,-4.093E+01,4.000E-02
3.77E+02,7.586E+02,3.730E+01,-4.127E+01,4.000E-02
3.78E+02,7.674E+02,3.730E+01,-4.195E+01,4.000E-02
3.79E+02,7.762E+02,3.730E+01,-4.265E+01,4.000E-02
3.80E+02,7.852E+02,3.734E+01,-4.281E+01,4.000E-02
3.81E+02,7.943E+02,3.729E+01,-4.378E+01,4.000E-02
3.82E+02,8.035E+02,3.731E+01,-4.438E+01,4.000E-02
3.83E+02,8.128E+02,3.733E+01,-4.503E+01,4.000E-02
3.84E+02,8.222E+02,3.730E+01,-4.534E+01,4.000E-02
3.85E+02,8.318E+02,3.734E+01,-4.663E+01,4.000E-02
3.86E+02,8.414E+02,3.732E+01,-4.711E+01,4.000E-02
3.87E+02,8.511E+02,3.733E+01,-4.773E+01,4.000E-02
3.88E+02,8.610E+02,3.733E+01,-4.815E+01,4.000E-02
3.89E+02,8.710E+02,3.737E+01,-4.870E+01,4.000E-02
3.90E+02,8.810E+02,3.734E+01,-4.947E+01,4.000E-02
3.91E+02,8.913E+02,3.739E+01,-4.976E+01,4.000E-02
3.92E+02,9.016E+02,3.737E+01,-5.114E+01,4.000E-02
3.93E+02,9.120E+02,3.735E+01,-5.223E+01,4.000E-02
3.94E+02,9.226E+02,3.738E+01,-5.229E+01,4.000E-02
3.95E+02,9.333E+02,3.739E+01,-5.306E+01,4.000E-02
3.96E+02,9.441E+02,3.742E+01,-5.444E+01,4.000E-02
