in Sa,Frequency in Hz,Gain in dB,Phase in °,Amplitude in Vpp
1.00E+00,1.000E+01,2.319E-04,-1.094E-01,4.000E-02
2.00E+00,1.012E+01,1.797E-02,-1.314E-01,4.000E-02
3.00E+00,1.023E+01,1.388E-02,-1.772E-01,4.000E-02
4.00E+00,1.035E+01,2.156E-02,-1.733E-01,4.000E-02
5.00E+00,1.047E+01,2.237E-02,-1.947E-01,4.000E-02
6.00E+00,1.059E+01,1.894E-02,-2.141E-01,4.000E-02
7.00E+00,1.072E+01,2.658E-02,-1.644E-01,4.000E-02
8.00E+00,1.084E+01,1.629E-02,-1.923E-01,4.000E-02
9.00E+00,1.096E+01,2.235E-02,-1.852E-01,4.000E-02
1.00E+01,1.109E+01,2.786E-02,-1.619E-01,4.000E-02
1.10E+01,1.122E+01,3.194E-02,-1.463E-01,4.000E-02
1.20E+01,1.135E+01,2.532E-02,-1.739E-01,4.000E-02
1.30E+01,1.148E+01,2.005E-02,-1.563E-01,4.000E-02
1.40E+01,1.161E+01,1.962E-02,-2.300E-01,4.000E-02
1.50E+01,1.175E+01,2.847E-02,-2.227E-01,4.000E-02
1.60E+01,1.189E+01,2.340E-02,-1.758E-01,4.000E-02
1.70E+01,1.202E+01,1.776E-02,-1.768E-01,4.000E-02
1.80E+01,1.216E+01,2.516E-02,-1.589E-01,4.000E-02
1.90E+01,1.230E+01,1.969E-02,-2.477E-01,4.000E-02
2.00E+01,1.245E+01,1.787E-02,-2.067E-01,4.000E-02
2.10E+01,1.259E+01,2.323E-02,-2.246E-01,4.000E-02
2.20E+01,1.274E+01,1.905E-02,-2.366E-01,4.000E-02
2.30E+01,1.288E+01,1.624E-02,-2.170E-01,4.000E-02
2.40E+01,1.303E+01,1.886E-02,-2.152E-01,4.000E-02
2.50E+01,1.318E+01,1.863E-02,-1.792E-01,4.000E-02
2.60E+01,1.334E+01,2.121E-02,-2.509E-01,4.000E-02
2.70E+01,1.349E+01,2.769E-02,-2.086E-01,4.000E-02
2.80E+01,1.365E+01,2.332E-02,-1.883E-01,4.000E-02
2.90E+01,1.380E+01,1.286E-02,-2.286E-01,4.000E-02
3.00E+01,1.396E+01,2.041E-02,-2.352E-01,4.000E-02
3.10E+01,1.413E+01,2.121E-02,-1.897E-01,4.000E-02
3.20E+01,1.429E+01,2.218E-02,-2.392E-01,4.000E-02
3.30E+01,1.445E+01,1.936E-02,-2.236E-01,4.000E-02
3.40E+01,1.462E+01,1.671E-02,-2.262E-01,4.000E-02
3.50E+01,1.479E+01,2.279E-02,-2.055E-01,4.000E-02
3.60E+01,1.496E+01,2.724E-02,-2.301E-01,4.000E-02
3.70E+01,1.514E+01,1.175E-02,-2.275E-01,4.000E-02
3.80E+01,1.531E+01,1.969E-02,-2.603E-01,4.000E-02
3.90E+01,1.549E+01,1.886E-02,-2.259E-01,4.000E-02
4.00E+01,1.567E+01,1.666E-02,-2.120E-01,4.000E-02
4.10E+01,1.585E+01,1.572E-02,-2.802E-01,4.000E-02
4.20E+01,1.603E+01,1.945E-02,-2.557E-01,4.000E-02
4.30E+01,1.622E+01,2.030E-02,-2.174E-01,4.000E-02
4.40E+01,1.641E+01,2.187E-02,-2.597E-01,4.000E-02
4.50E+01,1.660E+01,2.130E-02,-2.392E-01,4.000E-02
4.60E+01,1.679E+01,1.452E-02,-3.298E-01,4.000E-02
4.70E+01,1.698E+01,1.584E-02,-3.050E-01,4.000E-02
4.80E+01,1.718E+01,1.699E-02,-2.793E-01,4.000E-02
4.90E+01,1.738E+01,1.029E-02,-2.573E-01,4.000E-02
5.00E+01,1.758E+01,1.758E-02,-3.540E-01,4.000E-02
5.10E+01,1.778E+01,1.771E-02,-2.736E-01,4.000E-02
5.20E+01,1.799E+01,1.682E-02,-2.720E-01,4.000E-02
5.30E+01,1.820E+01,2.673E-02,-3.101E-01,4.000E-02
5.40E+01,1.841E+01,1.521E-02,-3.147E-01,4.000E-02
5.50E+01,1.862E+01,2.984E-02,-3.159E-01,4.000E-02
5.60E+01,1.884E+01,1.358E-02,-3.179E-01,4.000E-02
5.70E+01,1.905E+01,1.982E-02,-3.022E-01,4.000E-02
5.80E+01,1.928E+01,1.950E-02,-3.765E-01,4.000E-02
5.90E+01,1.950E+01,2.741E-02,-3.399E-01,4.000E-02
6.00E+01,1.972E+01,1.851E-02,-3.256E-01,4.000E-02
6.10E+01,1.995E+01,1.714E-02,-3.477E-01,4.000E-02
6.20E+01,2.018E+01,1.922E-02,-3.424E-01,4.000E-02
6.30E+01,2.042E+01,7.662E-03,-2.729E-01,4.000E-02
6.40E+01,2.065E+01,2.333E-02,-3.300E-01,4.000E-02
6.50E+01,2.089E+01,1.707E-02,-3.043E-01,4.000E-02
6.60E+01,2.113E+01,1.171E-02,-3.311E-01,4.000E-02
6.70E+01,2.138E+01,2.131E-02,-3.295E-01,4.000E-02
6.80E+01,2.163E+01,1.592E-02,-3.282E-01,4.000E-02
6.90E+01,2.188E+01,1.458E-02,-3.788E-01,4.000E-02
7.00E+01,2.213E+01,2.140E-02,-3.524E-01,4.000E-02
7.10E+01,2.239E+01,2.001E-02,-3.739E-01,4.000E-02
7.20E+01,2.265E+01,1.183E-02,-3.041E-01,4.000E-02
7.30E+01,2.291E+01,1.773E-02,-3.820E-01,4.000E-02
7.40E+01,2.317E+01,1.650E-02,-3.414E-01,4.000E-02
7.50E+01,2.344E+01,1.926E-02,-3.789E-01,4.000E-02
7.60E+01,2.371E+01,1.564E-02,-3.817E-01,4.000E-02
7.70E+01,2.399E+01,1.194E-02,-3.470E-01,4.000E-02
7.80E+01,2.427E+01,1.847E-02,-3.776E-01,4.000E-02
7.90E+01,2.455E+01,1.525E-02,-2.200E-01,4.000E-02
8.00E+01,2.483E+01,1.303E-02,-3.577E-01,4.000E-02
8.10E+01,2.512E+01,2.286E-02,-3.836E-01,4.000E-02
8.20E+01,2.541E+01,2.802E-02,-4.114E-01,4.000E-02
8.30E+01,2.570E+01,2.236E-02,-3.711E-01,4.000E-02
8.40E+01,2.600E+01,1.822E-02,-3.815E-01,4.000E-02
8.50E+01,2.630E+01,2.386E-02,-4.444E-01,4.000E-02
8.60E+01,2.661E+01,2.021E-02,-4.324E-01,4.000E-02
8.70E+01,2.692E+01,1.632E-02,-4.166E-01,4.000E-02
8.80E+01,2.723E+01,2.399E-02,-4.677E-01,4.000E-02
8.90E+01,2.754E+01,8.872E-03,-4.480E-01,4.000E-02
9.00E+01,2.786E+01,2.337E-02,-4.687E-01,4.000E-02
9.10E+01,2.818E+01,1.408E-02,-4.156E-01,4.000E-02
9.20E+01,2.851E+01,2.007E-02,-4.401E-01,4.000E-02
9.30E+01,2.884E+01,2.231E-02,-4.192E-01,4.000E-02
9.40E+01,2.917E+01,1.359E-02,-5.099E-01,4.000E-02
9.50E+01,2.951E+01,1.927E-02,-4.329E-01,4.000E-02
9.60E+01,2.985E+01,1.144E-02,-4.855E-01,4.000E-02
9.70E+01,3.020E+01,9.050E-03,-4.620E-01,4.000E-02
9.80E+01,3.055E+01,1.615E-02,-4.393E-01,4.000E-02
9.90E+01,3.090E+01,9.521E-03,-4.556E-01,4.000E-02
1.00E+02,3.126E+01,1.876E-02,-4.680E-01,4.000E-02
1.01E+02,3.162E+01,1.344E-02,-4.704E-01,4.000E-02
1.02E+02,3.199E+01,1.084E-02,-4.921E-01,4.000E-02
1.03E+02,3.236E+01,7.944E-03,-4.825E-01,4.000E-02
1.04E+02,3.273E+01,1.407E-02,-4.687E-01,4.000E-02
1.05E+02,3.311E+01,1.124E-02,-4.788E-01,4.000E-02
1.06E+02,3.350E+01,1.891E-02,-4.532E-01,4.000E-02
1.07E+02,3.388E+01,1.633E-02,-4.821E-01,4.000E-02
1.08E+02,3.428E+01,2.059E-02,-4.870E-01,4.000E-02
1.09E+02,3.467E+01,1.704E-02,-5.156E-01,4.000E-02
1.10E+02,3.508E+01,1.489E-02,-5.260E-01,4.000E-02
1.11E+02,3.548E+01,1.845E-02,-5.204E-01,4.000E-02
1.12E+02,3.589E+01,1.295E-02,-5.464E-01,4.000E-02
1.13E+02,3.631E+01,1.846E-02,-5.566E-01,4.000E-02
1.14E+02,3.673E+01,1.343E-02,-5.430E-01,4.000E-02
1.15E+02,3.715E+01,8.730E-03,-6.318E-01,4.000E-02
1.16E+02,3.758E+01,1.102E-02,-5.678E-01,4.000E-02
1.17E+02,3.802E+01,1.815E-02,-5.547E-01,4.000E-02
1.18E+02,3.846E+01,6.902E-03,-5.513E-01,4.000E-02
1.19E+02,3.890E+01,9.023E-03,-5.457E-01,4.000E-02
1.20E+02,3.936E+01,1.313E-02,-5.668E-01,4.000E-02
1.21E+02,3.981E+01,9.921E-03,-6.236E-01,4.000E-02
1.22E+02,4.027E+01,1.234E-02,-5.669E-01,4.000E-02
1.23E+02,4.074E+01,8.807E-03,-5.488E-01,4.000E-02
1.24E+02,4.121E+01,1.599E-02,-5.842E-01,4.000E-02
1.25E+02,4.169E+01,1.622E-02,-6.549E-01,4.000E-02
1.26E+02,4.217E+01,1.387E-02,-5.934E-01,4.000E-02
1.27E+02,4.266E+01,1.984E-02,-6.398E-01,4.000E-02
1.28E+02,4.315E+01,1.310E-02,-6.227E-01,4.000E-02
1.29E+02,4.365E+01,1.136E-02,-6.529E-01,4.000E-02
1.30E+02,4.416E+01,1.776E-02,-6.063E-01,4.000E-02
1.31E+02,4.467E+01,1.345E-02,-6.360E-01,4.000E-02
1.32E+02,4.519E+01,1.066E-02,-6.377E-01,4.000E-02
1.33E+02,4.571E+01,2.403E-02,-6.611E-01,4.000E-02
1.34E+02,4.624E+01,1.833E-02,-6.453E-01,4.000E-02
1.35E+02,4.677E+01,1.588E-02,-7.078E-01,4.000E-02
1.36E+02,4.732E+01,2.766E-03,-6.848E-01,4.000E-02
1.37E+02,4.786E+01,1.184E-02,-6.849E-01,4.000E-02
1.38E+02,4.842E+01,1.448E-02,-7.651E-01,4.000E-02
1.39E+02,4.898E+01,2.148E-02,-7.078E-01,4.000E-02
1.40E+02,4.955E+01,1.096E-02,-7.195E-01,4.000E-02
1.41E+02,5.012E+01,1.286E-02,-7.068E-01,4.000E-02
1.42E+02,5.070E+01,1.085E-02,-7.244E-01,4.000E-02
1.43E+02,5.129E+01,1.768E-02,-7.538E-01,4.000E-02
1.44E+02,5.188E+01,7.806E-03,-7.340E-01,4.000E-02
1.45E+02,5.248E+01,1.790E-02,-7.505E-01,4.000E-02
1.46E+02,5.309E+01,1.794E-02,-7.319E-01,4.000E-02
1.47E+02,5.370E+01,2.308E-02,-8.005E-01,4.000E-02
1.48E+02,5.433E+01,1.601E-02,-8.132E-01,4.000E-02
1.49E+02,5.495E+01,9.381E-03,-7.256E-01,4.000E-02
1.50E+02,5.559E+01,1.600E-02,-7.861E-01,4.000E-02
1.51E+02,5.623E+01,6.433E-03,-7.923E-01,4.000E-02
1.52E+02,5.689E+01,2.234E-02,-8.625E-01,4.000E-02
1.53E+02,5.754E+01,1.011E-02,-8.432E-01,4.000E-02
1.54E+02,5.821E+01,1.501E-02,-8.351E-01,4.000E-02
1.55E+02,5.888E+01,1.319E-02,-8.425E-01,4.000E-02
1.56E+02,5.957E+01,1.179E-02,-8.656E-01,4.000E-02
1.57E+02,6.026E+01,2.306E-02,-8.310E-01,4.000E-02
1.58E+02,6.095E+01,1.159E-02,-8.899E-01,4.000E-02
1.59E+02,6.166E+01,1.732E-02,-8.725E-01,4.000E-02
1.60E+02,6.237E+01,1.805E-02,-1.008E+00,4.000E-02
1.61E+02,6.310E+01,9.258E-03,-9.341E-01,4.000E-02
1.62E+02,6.383E+01,1.747E-02,-9.470E-01,4.000E-02
1.63E+02,6.457E+01,1.559E-02,-9.066E-01,4.000E-02
1.64E+02,6.531E+01,1.230E-02,-9.603E-01,4.000E-02
1.65E+02,6.607E+01,1.729E-02,-8.896E-01,4.000E-02
1.66E+02,6.683E+01,1.808E-02,-1.009E+00,4.000E-02
1.67E+02,6.761E+01,1.410E-02,-9.641E-01,4.000E-02
1.68E+02,6.839E+01,2.406E-02,-9.160E-01,4.000E-02
1.69E+02,6.918E+01,1.821E-02,-9.805E-01,4.000E-02
1.70E+02,6.998E+01,6.656E-03,-9.901E-01,4.000E-02
1.71E+02,7.079E+01,2.265E-02,-1.114E+00,4.000E-02
1.72E+02,7.161E+01,1.631E-02,-9.884E-01,4.000E-02
1.73E+02,7.244E+01,1.961E-02,-1.037E+00,4.000E-02
1.74E+02,7.328E+01,1.364E-02,-1.108E+00,4.000E-02
1.75E+02,7.413E+01,3.011E-02,-1.030E+00,4.000E-02
1.76E+02,7.499E+01,1.824E-02,-1.113E+00,4.000E-02
1.77E+02,7.586E+01,3.672E-02,-1.119E+00,4.000E-02
1.78E+02,7.674E+01,1.435E-02,-1.149E+00,4.000E-02
1.79E+02,7.762E+01,6.196E-03,-1.161E+00,4.000E-02
1.80E+02,7.852E+01,1.343E-02,-1.172E+00,4.000E-02
1.81E+02,7.943E+01,1.454E-02,-1.155E+00,4.000E-02
1.82E+02,8.035E+01,-4.556E-05,-1.176E+00,4.000E-02
1.83E+02,8.128E+01,1.481E-02,-1.203E+00,4.000E-02
1.84E+02,8.222E+01,1.360E-02,-1.122E+00,4.000E-02
1.85E+02,8.318E+01,1.186E-02,-1.203E+00,4.000E-02
1.86E+02,8.414E+01,1.850E-02,-1.227E+00,4.000E-02
1.87E+02,8.511E+01,1.351E-02,-1.180E+00,4.000E-02
1.88E+02,8.610E+01,1.282E-02,-1.293E+00,4.000E-02
1.89E+02,8.710E+01,1.757E-02,-1.284E+00,4.000E-02
1.90E+02,8.810E+01,2.755E-02,-1.281E+00,4.000E-02
1.91E+02,8.913E+01,1.075E-02,-1.310E+00,4.000E-02
1.92E+02,9.016E+01,1.157E-02,-1.413E+00,4.000E-02
1.93E+02,9.120E+01,2.182E-02,-1.349E+00,4.000E-02
1.94E+02,9.226E+01,1.866E-02,-1.395E+00,4.000E-02
1.95E+02,9.333E+01,2.745E-02,-1.409E+00,4.000E-02
1.96E+02,9.441E+01,1.990E-02,-1.364E+00,4.000E-02
1.97E+02,9.550E+01,5.926E-03,-1.430E+00,4.000E-02
1.98E+02,9.661E+01,3.019E-02,-1.458E+00,4.000E-02
1.99E+02,9.772E+01,1.036E-02,-1.464E+00,4.000E-02
2.00E+02,9.886E+01,2.006E-02,-1.438E+00,4.000E-02
2.01E+02,1.000E+02,2.295E-02,-1.455E+00,4.000E-02
2.02E+02,1.012E+02,1.882E-02,-1.479E+00,4.000E-02
2.03E+02,1.023E+02,3.346E-02,-1.480E+00,4.000E-02
2.04E+02,1.035E+02,2.927E-02,-1.597E+00,4.000E-02
2.05E+02,1.047E+02,1.772E-02,-1.532E+00,4.000E-02
2.06E+02,1.059E+02,2.589E-02,-1.525E+00,4.000E-02
2.07E+02,1.072E+02,2.520E-02,-1.537E+00,4.000E-02
2.08E+02,1.084E+02,2.631E-02,-1.541E+00,4.000E-02
2.09E+02,1.096E+02,8.783E-03,-1.638E+00,4.000E-02
2.10E+02,1.109E+02,3.259E-02,-1.571E+00,4.000E-02
2.11E+02,1.122E+02,2.054E-02,-1.660E+00,4.000E-02
2.12E+02,1.135E+02,2.442E-02,-1.682E+00,4.000E-02
2.13E+02,1.148E+02,3.348E-02,-1.704E+00,4.000E-02
2.14E+02,1.161E+02,2.895E-02,-1.673E+00,4.000E-02
2.15E+02,1.175E+02,2.642E-02,-1.674E+00,4.000E-02
2.16E+02,1.189E+02,2.132E-02,-1.689E+00,4.000E-02
2.17E+02,1.202E+02,2.054E-02,-1.718E+00,4.000E-02
2.18E+02,1.216E+02,2.846E-02,-1.726E+00,4.000E-02
2.19E+02,1.230E+02,1.372E-02,-1.833E+00,4.000E-02
2.20E+02,1.245E+02,3.073E-02,-1.830E+00,4.000E-02
2.21E+02,1.259E+02,3.505E-02,-1.748E+00,4.000E-02
2.22E+02,1.274E+02,2.966E-02,-1.839E+00,4.000E-02
2.23E+02,1.288E+02,3.310E-02,-1.859E+00,4.000E-02
2.24E+02,1.303E+02,3.013E-02,-1.871E+00,4.000E-02
2.25E+02,1.318E+02,3.815E-02,-1.929E+00,4.000E-02
2.26E+02,1.334E+02,2.481E-02,-1.900E+00,4.000E-02
2.27E+02,1.349E+02,3.117E-02,-1.955E+00,4.000E-02
2.28E+02,1.365E+02,2.807E-02,-1.940E+00,4.000E-02
2.29E+02,1.380E+02,3.469E-02,-2.004E+00,4.000E-02
2.30E+02,1.396E+02,2.743E-02,-2.070E+00,4.000E-02
2.31E+02,1.413E+02,4.374E-02,-2.050E+00,4.000E-02
2.32E+02,1.429E+02,3.775E-02,-1.994E+00,4.000E-02
2.33E+02,1.445E+02,2.827E-02,-2.147E+00,4.000E-02
2.34E+02,1.462E+02,3.618E-02,-2.096E+00,4.000E-02
2.35E+02,1.479E+02,3.406E-02,-2.170E+00,4.000E-02
2.36E+02,1.496E+02,3.552E-02,-2.077E+00,4.000E-02
2.37E+02,1.514E+02,3.720E-02,-2.235E+00,4.000E-02
2.38E+02,1.531E+02,3.073E-02,-2.224E+00,4.000E-02
2.39E+02,1.549E+02,3.064E-02,-2.247E+00,4.000E-02
2.40E+02,1.567E+02,3.495E-02,-2.290E+00,4.000E-02
2.41E+02,1.585E+02,4.197E-02,-2.303E+00,4.000E-02
2.42E+02,1.603E+02,3.869E-02,-2.316E+00,4.000E-02
2.43E+02,1.622E+02,2.965E-02,-2.360E+00,4.000E-02
2.44E+02,1.641E+02,3.511E-02,-2.338E+00,4.000E-02
2.45E+02,1.660E+02,3.539E-02,-2.377E+00,4.000E-02
2.46E+02,1.679E+02,3.670E-02,-2.504E+00,4.000E-02
2.47E+02,1.698E+02,4.023E-02,-2.525E+00,4.000E-02
2.48E+02,1.718E+02,2.751E-02,-2.502E+00,4.000E-02
2.49E+02,1.738E+02,3.222E-02,-2.618E+00,4.000E-02
2.50E+02,1.758E+02,4.340E-02,-2.629E+00,4.000E-02
2.51E+02,1.778E+02,4.951E-02,-2.556E+00,4.000E-02
2.52E+02,1.799E+02,4.115E-02,-2.618E+00,4.000E-02
2.53E+02,1.820E+02,4.099E-02,-2.691E+00,4.000E-02
2.54E+02,1.841E+02,4.058E-02,-2.648E+00,4.000E-02
2.55E+02,1.862E+02,4.320E-02,-2.780E+00,4.000E-02
2.56E+02,1.884E+02,3.088E-02,-2.734E+00,4.000E-02
2.57E+02,1.905E+02,2.877E-02,-2.727E+00,4.000E-02
2.58E+02,1.928E+02,4.860E-02,-2.763E+00,4.000E-02
2.59E+02,1.950E+02,3.885E-02,-2.904E+00,4.000E-02
2.60E+02,1.972E+02,4.257E-02,-2.871E+00,4.000E-02
2.61E+02,1.995E+02,4.412E-02,-2.931E+00,4.000E-02
2.62E+02,2.018E+02,4.596E-02,-2.958E+00,4.000E-02
2.63E+02,2.042E+02,5.533E-02,-2.937E+00,4.000E-02
2.64E+02,2.065E+02,3.380E-02,-3.055E+00,4.000E-02
2.65E+02,2.089E+02,4.845E-02,-3.017E+00,4.000E-02
2.66E+02,2.113E+02,5.175E-02,-3.136E+00,4.000E-02
2.67E+02,2.138E+02,5.390E-02,-3.121E+00,4.000E-02
2.68E+02,2.163E+02,5.315E-02,-3.108E+00,4.000E-02
2.69E+02,2.188E+02,4.159E-02,-3.136E+00,4.000E-02
2.70E+02,2.213E+02,4.951E-02,-3.315E+00,4.000E-02
2.71E+02,2.239E+02,3.503E-02,-3.384E+00,4.000E-02
2.72E+02,2.265E+02,4.495E-02,-3.413E+00,4.000E-02
2.73E+02,2.291E+02,5.608E-02,-3.452E+00,4.000E-02
2.74E+02,2.317E+02,6.368E-02,-3.454E+00,4.000E-02
2.75E+02,2.344E+02,5.437E-02,-3.488E+00,4.000E-02
2.76E+02,2.371E+02,7.594E-02,-3.549E+00,4.000E-02
2.77E+02,2.399E+02,4.767E-02,-3.444E+00,4.000E-02
2.78E+02,2.427E+02,4.956E-02,-3.718E+00,4.000E-02
2.79E+02,2.455E+02,6.975E-02,-3.609E+00,4.000E-02
2.80E+02,2.483E+02,6.964E-02,-3.631E+00,4.000E-02
2.81E+02,2.512E+02,6.180E-02,-3.752E+00,4.000E-02
2.82E+02,2.541E+02,7.319E-02,-3.759E+00,4.000E-02
2.83E+02,2.570E+02,7.375E-02,-3.843E+00,4.000E-02
2.84E+02,2.600E+02,7.693E-02,-3.818E+00,4.000E-02
2.85E+02,2.630E+02,7.830E-02,-3.920E+00,4.000E-02
2.86E+02,2.661E+02,5.496E-02,-3.983E+00,4.000E-02
2.87E+02,2.692E+02,7.190E-02,-4.041E+00,4.000E-02
2.88E+02,2.723E+02,7.186E-02,-3.937E+00,4.000E-02
2.89E+02,2.754E+02,6.439E-02,-4.179E+00,4.000E-02
2.90E+02,2.786E+02,7.113E-02,-4.069E+00,4.000E-02
2.91E+02,2.818E+02,8.120E-02,-4.207E+00,4.000E-02
2.92E+02,2.851E+02,4.583E-02,-4.182E+00,4.000E-02
2.93E+02,2.884E+02,6.208E-02,-4.308E+00,4.000E-02
2.94E+02,2.917E+02,7.722E-02,-4.298E+00,4.000E-02
2.95E+02,2.951E+02,7.322E-02,-4.340E+00,4.000E-02
2.96E+02,2.985E+02,7.559E-02,-4.423E+00,4.000E-02
2.97E+02,3.020E+02,7.755E-02,-4.430E+00,4.000E-02
2.98E+02,3.055E+02,7.516E-02,-4.476E+00,4.000E-02
2.99E+02,3.090E+02,8.775E-02,-4.530E+00,4.000E-02
3.00E+02,3.126E+02,8.405E-02,-4.561E+00,4.000E-02
3.01E+02,3.162E+02,9.230E-02,-4.753E+00,4.000E-02
3.02E+02,3.199E+02,9.318E-02,-4.806E+00,4.000E-02
3.03E+02,3.236E+02,8.650E-02,-4.746E+00,4.000E-02
3.04E+02,3.273E+02,7.358E-02,-4.840E+00,4.000E-02
3.05E+02,3.311E+02,9.271E-02,-4.917E+00,4.000E-02
3.06E+02,3.350E+02,9.613E-02,-5.016E+00,4.000E-02
3.07E+02,3.388E+02,9.191E-02,-5.095E+00,4.000E-02
3.08E+02,3.428E+02,9.632E-02,-5.120E+00,4.000E-02
3.09E+02,3.467E+02,9.822E-02,-5.140E+00,4.000E-02
3.10E+02,3.508E+02,9.374E-02,-5.261E+00,4.000E-02
3.11E+02,3.548E+02,9.130E-02,-5.410E+00,4.000E-02
3.12E+02,3.589E+02,9.375E-02,-5.505E+00,4.000E-02
3.13E+02,3.631E+02,1.147E-01,-5.457E+00,4.000E-02
3.14E+02,3.673E+02,9.693E-02,-5.419E+00,4.000E-02
3.15E+02,3.715E+02,1.152E-01,-5.547E+00,4.000E-02
3.16E+02,3.758E+02,1.104E-01,-5.728E+00,4.000E-02
3.17E+02,3.802E+02,1.072E-01,-5.786E+00,4.000E-02
3.18E+02,3.846E+02,1.047E-01,-5.703E+00,4.000E-02
3.19E+02,3.890E+02,1.283E-01,-5.901E+00,4.000E-02
3.20E+02,3.936E+02,1.199E-01,-5.860E+00,4.000E-02
3.21E+02,3.981E+02,1.228E-01,-5.927E+00,4.000E-02
3.22E+02,4.027E+02,1.370E-01,-5.962E+00,4.000E-02
3.23E+02,4.074E+02,1.242E-01,-5.956E+00,4.000E-02
3.24E+02,4.121E+02,1.387E-01,-6.117E+00,4.000E-02
3.25E+02,4.169E+02,1.383E-01,-6.346E+00,4.000E-02
3.26E+02,4.217E+02,1.439E-01,-6.420E+00,4.000E-02
3.27E+02,4.266E+02,1.235E-01,-6.462E+00,4.000E-02
3.28E+02,4.315E+02,1.487E-01,-6.489E+00,4.000E-02
3.29E+02,4.365E+02,1.493E-01,-6.675E+00,4.000E-02
3.30E+02,4.416E+02,1.375E-01,-6.653E+00,4.000E-02
3.31E+02,4.467E+02,1.482E-01,-6.870E+00,4.000E-02
3.32E+02,4.519E+02,1.616E-01,-7.008E+00,4.000E-02
3.33E+02,4.571E+02,1.629E-01,-6.877E+00,4.000E-02
3.34E+02,4.624E+02,1.872E-01,-7.113E+00,4.000E-02
3.35E+02,4.677E+02,1.488E-01,-7.044E+00,4.000E-02
3.36E+02,4.732E+02,1.672E-01,-7.182E+00,4.000E-02
3.37E+02,4.786E+02,1.567E-01,-7.248E+00,4.000E-02
3.38E+02,4.842E+02,1.826E-01,-7.325E+00,4.000E-02
3.39E+02,4.898E+02,1.591E-01,-7.389E+00,4.000E-02
3.40E+02,4.955E+02,1.644E-01,-7.344E+00,4.000E-02
3.41E+02,5.012E+02,1.715E-01,-7.706E+00,4.000E-02
3.42E+02,5.070E+02,2.108E-01,-7.810E+00,4.000E-02
3.43E+02,5.129E+02,1.702E-01,-7.703E+00,4.000E-02
3.44E+02,5.188E+02,1.801E-01,-7.962E+00,4.000E-02
3.45E+02,5.248E+02,1.990E-01,-7.912E+00,4.000E-02
3.46E+02,5.309E+02,1.888E-01,-7.948E+00,4.000E-02
3.47E+02,5.370E+02,2.032E-01,-8.163E+00,4.000E-02
3.48E+02,5.433E+02,2.019E-01,-8.295E+00,4.000E-02
3.49E+02,5.495E+02,2.381E-01,-8.274E+00,4.000E-02
3.50E+02,5.559E+02,2.275E-01,-8.384E+00,4.000E-02
3.51E+02,5.623E+02,2.270E-01,-8.558E+00,4.000E-02
3.52E+02,5.689E+02,2.077E-01,-8.736E+00,4.000E-02
3.53E+02,5.754E+02,2.222E-01,-8.891E+00,4.000E-02
3.54E+02,5.821E+02,2.415E-01,-9.119E+00,4.000E-02
3.55E+02,5.888E+02,2.303E-01,-8.967E+00,4.000E-02
3.56E+02,5.957E+02,2.347E-01,-9.163E+00,4.000E-02
3.57E+02,6.026E+02,2.537E-01,-9.278E+00,4.000E-02
3.58E+02,6.095E+02,2.455E-01,-9.275E+00,4.000E-02
3.59E+02,6.166E+02,2.514E-01,-9.421E+00,4.000E-02
3.60E+02,6.237E+02,2.476E-01,-9.518E+00,4.000E-02
3.61E+02,6.310E+02,2.570E-01,-9.589E+00,4.000E-02
3.62E+02,6.383E+02,2.947E-01,-9.816E+00,4.000E-02
3.63E+02,6.457E+02,2.927E-01,-9.885E+00,4.000E-02
3.64E+02,6.531E+02,2.971E-01,-9.922E+00,4.000E-02
3.65E+02,6.607E+02,2.950E-01,-1.012E+01,4.000E-02
3.66E+02,6.683E+02,3.116E-01,-1.038E+01,4.000E-02
3.67E+02,6.761E+02,2.867E-01,-1.038E+01,4.000E-02
3.68E+02,6.839E+02,3.268E-01,-1.068E+01,4.000E-02
3.69E+02,6.918E+02,3.362E-01,-1.080E+01,4.000E-02
3.70E+02,6.998E+02,3.427E-01,-1.090E+01,4.000E-02
3.71E+02,7.079E+02,3.297E-01,-1.095E+01,4.000E-02
3.72E+02,7.161E+02,3.241E-01,-1.115E+01,4.000E-02
3.73E+02,7.244E+02,3.386E-01,-1.126E+01,4.000E-02
3.74E+02,7.328E+02,3.581E-01,-1.139E+01,4.000E-02
3.75E+02,7.413E+02,3.534E-01,-1.145E+01,4.000E-02
3.76E+02,7.499E+02,3.433E-01,-1.164E+01,4.000E-02
3.77E+02,7.586E+02,3.887E-01,-1.174E+01,4.000E-02
3.78E+02,7.674E+02,3.916E-01,-1.193E+01,4.000E-02
3.79E+02,7.762E+02,4.051E-01,-1.206E+01,4.000E-02
3.80E+02,7.852E+02,4.013E-01,-1.234E+01,4.000E-02
3.81E+02,7.943E+02,4.022E-01,-1.234E+01,4.000E-02
3.82E+02,8.035E+02,4.214E-01,-1.248E+01,4.000E-02
3.83E+02,8.128E+02,4.118E-01,-1.274E+01,4.000E-02
3.84E+02,8.222E+02,3.790E-01,-1.292E+01,4.000E-02
3.85E+02,8.318E+02,4.629E-01,-1.314E+01,4.000E-02
3.86E+02,8.414E+02,4.622E-01,-1.332E+01,4.000E-02
3.87E+02,8.511E+02,4.649E-01,-1.340E+01,4.000E-02
3.88E+02,8.610E+02,4.595E-01,-1.357E+01,4.000E-02
3.89E+02,8.710E+02,4.776E-01,-1.383E+01,4.000E-02
3.90E+02,8.810E+02,5.006E-01,-1.392E+01,4.000E-02
